Time (s),ECG (mV)
0.0,0.0
0.002,0.003141113121831988
0.004,0.006279349820730385
0.006,0.009411837510667539
0.008,0.012535711274014809
0.01,0.01564811768221757
0.012,0.01874621860026233
0.014,0.021827194969569162
0.016,0.024888250563973237
0.018000000000000002,0.027926615713497503
0.02,0.030939550990664325
0.022,0.03392435085414694
0.024,0.03687834724462235
0.026000000000000002,0.03979891312775499
0.028,0.042683465979315646
0.03,0.04552947120752229
0.032,0.04833444550777853
0.034,0.05109596014508141
0.036000000000000004,0.05381164415947315
0.038,0.05647918749002029
0.04,0.059096344012919924
0.042,0.061660934489453964
0.044,0.06417084941964121
0.046,0.06662405179757001
0.048,0.06901857976453445
0.05,0.07135254915624212
0.052000000000000005,0.0736241559405116
0.054,0.07583167854203327
0.056,0.077973480050928
0.058,0.08004801031200232
0.06,0.08205380789176878
0.062,0.08398950192047364
0.064,0.08585381380655085
0.066,0.08764555882110349
0.068,0.08936364755019721
0.07,0.09100708721293882
0.07200000000000001,0.09257498284350296
0.074,0.0940665383354635
0.076,0.09548105734698134
0.078,0.09681794406559827
0.08,0.09807670383158512
0.082,0.09925694361899416
0.084,0.1003583723737669
0.08600000000000001,0.10138080120845153
0.088,0.10232414345328819
0.09,0.10318841456362357
0.092,0.10397373188382031
0.094,0.10468031426803115
0.096,0.10530848155840936
0.098,0.10585865392153107
0.1,0.106331351044005
0.10200000000000001,0.10672719118844559
0.10400000000000001,0.10704689011118346
0.106,0.10729125984328322
0.108,0.10746120733663325
0.11,0.10755773297706216
0.112,0.10758192896662704
0.114,0.10753497757740274
0.116,0.10741814927928438
0.11800000000000001,0.10723280074449422
0.12,0.10698037273165834
0.122,0.1066623878524896
0.124,0.10628044822428027
0.126,0.10583623301156879
0.128,0.10533149586050328
0.13,0.10476806222957566
0.132,0.10414782662054765
0.134,0.1034727497135316
0.136,0.10274485541032385
0.138,0.10196622779022012
0.14,0.1011390079826647
0.14200000000000002,0.10026539096120395
0.14400000000000002,0.0993476222633261
0.146,0.0983879946408736
0.148,0.09738884464581353
0.15,0.09635254915624214
0.152,0.09528152184758468
0.154,0.094178209614029
0.156,0.09304508894530161
0.158,0.09188466226395836
0.16,0.09069945422841671
0.162,0.08949200800700634
0.164,0.08826488152835371
0.166,0.08702064371345115
0.168,0.08576187069478569
0.17,0.08449114202792071
0.17200000000000001,0.08321103690093458
0.17400000000000002,0.08192413034712255
0.176,0.08063298946636259
0.178,0.07934016966053437
0.18,0.07804821088835923
0.182,0.07675963394500078
0.184,0.07547693677173128
0.186,0.0742025908009245
0.188,0.0729390373415857
0.19,0.0716886840105715
0.192,0.0704539012145868
0.194,0.06923701868797284
0.196,0.06804032209122166
0.198,0.06686604967506504
0.2,0.0657163890148917
0.202,0.06459347382014759
0.20400000000000001,0.06349938082326537
0.20600000000000002,0.06243612675255736
0.20800000000000002,0.06140566539338492
0.21,0.06040988474179254
0.212,0.05945060425466222
0.214,0.058529572200306565
0.216,0.057648463113275525
0.218,0.056808875357003324
0.22,0.05601232879776812
0.222,0.055260262593278785
0.224,0.05455403309903913
0.226,0.053894911895472866
0.228,0.05328408393861925
0.23,0.05272264583703522
0.232,0.05221160425735762
0.234,0.051751874460797875
0.23600000000000002,0.051344278972653555
0.23800000000000002,0.05098954638673254
0.24,0.050688310306392724
0.242,0.050441108423706055
0.244,0.05024838173805851
0.246,0.0501104739152993
0.248,0.05002763078835215
0.25,0.05
0.252,0.05002763078835215
0.254,0.0501104739152993
0.256,0.05024838173805851
0.258,0.050441108423706055
0.26,0.050688310306392724
0.262,0.050989546386732545
0.264,0.05134427897265357
0.266,0.051751874460797875
0.268,0.052211604257357616
0.27,0.05272264583703522
0.272,0.05328408393861924
0.274,0.053894911895472845
0.276,0.054554033099039154
0.278,0.05526026259327877
0.28,0.056012328797768116
0.28200000000000003,0.05680887535700334
0.28400000000000003,0.05764846311327554
0.28600000000000003,0.05852957220030655
0.28800000000000003,0.059450604254662226
0.29,0.06040988474179251
0.292,0.06140566539338493
0.294,0.06243612675255736
0.296,0.06349938082326534
0.298,0.06459347382014757
0.3,0.0657163890148917
0.302,0.06686604967506501
0.304,0.06804032209122166
0.306,0.06923701868797284
0.308,0.07045390121458679
0.31,0.07168868401057149
0.312,0.07293903734158569
0.314,0.07420259080092452
0.316,0.07547693677173127
0.318,0.07675963394500075
0.32,0.07804821088835923
0.322,0.07934016966053438
0.324,0.08063298946636259
0.326,0.08192413034712258
0.328,0.08321103690093458
0.33,0.08449114202792068
0.332,0.08576187069478572
0.334,0.08702064371345117
0.336,0.08826488152835371
0.338,0.08949200800700637
0.34,0.09069945422841671
0.342,0.09188466226395837
0.34400000000000003,0.09304508894530165
0.34600000000000003,0.09417820961402898
0.34800000000000003,0.09528152184758468
0.35000000000000003,0.09635254915624215
0.352,0.0973888446458135
0.354,0.09838799464087358
0.356,0.09934762226332611
0.358,0.10026539096120393
0.36,0.10113900798266467
0.362,0.10196622779022013
0.364,0.10274485541032383
0.366,0.1034727497135316
0.368,0.10414782662054767
0.37,0.1047680622295756
0.372,0.10533149586050328
0.374,0.1058362330115688
0.376,0.10628044822428025
0.378,0.1066623878524896
0.38,0.10698037273165835
0.382,0.1072328007444942
0.384,0.10741814927928436
0.386,0.10753497757740274
0.388,0.10758192896662702
0.39,0.10755773297706217
0.392,0.10746120733663325
0.394,0.10729125984328322
0.396,0.10704689011118343
0.398,0.10672719118844559
0.4,0.10633135104400501
0.402,0.10585865392153107
0.404,0.10530848155840934
0.406,0.10468031426803114
0.40800000000000003,0.10397373188382034
0.41000000000000003,0.10318841456362357
0.41200000000000003,0.10232414345328819
0.41400000000000003,0.10138080120845151
0.41600000000000004,0.10035837237376687
0.418,0.09925694361899418
0.42,0.09807670383158515
0.422,0.0968179440655983
0.424,0.09548105734698137
0.426,0.0940665383354635
0.428,0.09257498284350298
0.43,0.09100708721293885
0.432,0.08936364755019724
0.434,0.0876455588211035
0.436,0.08585381380655084
0.438,0.08398950192047366
0.44,0.08205380789176883
0.442,0.08004801031200232
0.444,0.077973480050928
0.446,0.07583167854203327
0.448,0.07362415594051161
0.45,0.07135254915624215
0.452,0.06901857976453447
0.454,0.06662405179757
0.456,0.06417084941964121
0.458,0.061660934489454006
0.46,0.0590963440129199
0.462,0.056479187490020295
0.464,0.053811644159473156
0.466,0.05109596014508141
0.468,0.04833444550777854
0.47000000000000003,0.045529471207522244
0.47200000000000003,0.042683465979315605
0.47400000000000003,0.039798913127754965
0.47600000000000003,0.03687834724462231
0.47800000000000004,0.03392435085414691
0.48,0.030939550990664352
0.482,0.027926615713497548
0.484,0.0248882505639733
0.486,0.021827194969569162
0.488,0.01874621860026239
0.49,0.015648117682217643
0.492,0.012535711274014812
0.494,0.00941183751066756
0.496,0.006279349820730468
0.498,0.0031411131218320003
0.5,3.061616997868383e-17
0.502,-0.0031411131218319396
0.504,-0.006279349820730406
0.506,-0.009411837510667499
0.508,-0.012535711274014753
0.51,-0.015648117682217584
0.512,-0.018746218600262328
0.514,-0.0218271949695691
0.516,-0.02488825056397324
0.518,-0.027926615713497492
0.52,-0.030939550990664293
0.522,-0.03392435085414698
0.524,-0.03687834724462233
0.526,-0.03979891312775495
0.528,-0.04268346597931568
0.53,-0.04552947120752231
0.532,-0.04833444550777853
0.534,-0.05109596014508143
0.536,-0.05381164415947315
0.538,-0.05647918749002029
0.54,-0.059096344012919966
0.542,-0.061660934489453964
0.544,-0.06417084941964121
0.546,-0.06662405179757004
0.548,-0.06901857976453446
0.55,-0.07135254915624215
0.552,-0.07362415594051161
0.554,-0.07583167854203327
0.556,-0.077973480050928
0.558,-0.08004801031200234
0.56,-0.08205380789176882
0.562,-0.08398950192047366
0.5640000000000001,-0.08585381380655088
0.5660000000000001,-0.08764555882110353
0.5680000000000001,-0.08936364755019727
0.5700000000000001,-0.09100708721293885
0.5720000000000001,-0.09257498284350299
0.5740000000000001,-0.09406653833546354
0.5760000000000001,-0.0954810573469814
0.578,-0.09681794406559824
0.58,-0.09807670383158508
0.582,-0.09925694361899415
0.584,-0.10035837237376685
0.586,-0.1013808012084515
0.588,-0.10232414345328816
0.59,-0.10318841456362354
0.592,-0.10397373188382034
0.594,-0.10468031426803112
0.596,-0.10530848155840933
0.598,-0.10585865392153107
0.6,-0.106331351044005
0.602,-0.10672719118844558
0.604,-0.10704689011118344
0.606,-0.10729125984328321
0.608,-0.10746120733663325
0.61,-0.1075577329770622
0.612,-0.10758192896662702
0.614,-0.10753497757740274
0.616,-0.10741814927928439
0.618,-0.10723280074449422
0.62,-0.10698037273165836
0.622,-0.10666238785248963
0.624,-0.10628044822428026
0.626,-0.1058362330115688
0.628,-0.10533149586050325
0.63,-0.10476806222957563
0.632,-0.10414782662054768
0.634,-0.10347274971353157
0.636,-0.10274485541032384
0.638,-0.10196622779022015
0.64,-0.10113900798266467
0.642,-0.10026539096120397
0.644,-0.09934762226332611
0.646,-0.09838799464087354
0.648,-0.09738884464581349
0.65,-0.09635254915624214
0.652,-0.09528152184758464
0.654,-0.09417820961402898
0.656,-0.09304508894530167
0.658,-0.09188466226395833
0.66,-0.09069945422841673
0.662,-0.0894920080070064
0.664,-0.08826488152835366
0.666,-0.08702064371345114
0.668,-0.0857618706947857
0.67,-0.08449114202792064
0.672,-0.08321103690093458
0.674,-0.08192413034712256
0.676,-0.08063298946636253
0.678,-0.07934016966053437
0.68,-0.07804821088835925
0.682,-0.07675963394500071
0.684,-0.07547693677173126
0.686,-0.07420259080092452
0.6880000000000001,-0.07293903734158563
0.6900000000000001,-0.07168868401057149
0.6920000000000001,-0.07045390121458682
0.6940000000000001,-0.06923701868797279
0.6960000000000001,-0.06804032209122166
0.6980000000000001,-0.06686604967506506
0.7000000000000001,-0.06571638901489164
0.7020000000000001,-0.06459347382014756
0.704,-0.06349938082326542
0.706,-0.06243612675255737
0.708,-0.061405665393384955
0.71,-0.06040988474179258
0.712,-0.05945060425466222
0.714,-0.05852957220030658
0.716,-0.057648463113275566
0.718,-0.05680887535700333
0.72,-0.05601232879776814
0.722,-0.05526026259327881
0.724,-0.05455403309903913
0.726,-0.05389491189547286
0.728,-0.053284083938619276
0.73,-0.05272264583703521
0.732,-0.05221160425735763
0.734,-0.051751874460797896
0.736,-0.05134427897265356
0.738,-0.05098954638673255
0.74,-0.05068831030639274
0.742,-0.050441108423706055
0.744,-0.05024838173805851
0.746,-0.050110473915299304
0.748,-0.05002763078835215
0.75,-0.05
0.752,-0.05002763078835215
0.754,-0.0501104739152993
0.756,-0.050248381738058505
0.758,-0.05044110842370604
0.76,-0.05068831030639273
0.762,-0.05098954638673254
0.764,-0.05134427897265355
0.766,-0.05175187446079788
0.768,-0.0522116042573576
0.77,-0.052722645837035204
0.772,-0.05328408393861925
0.774,-0.05389491189547283
0.776,-0.05455403309903912
0.778,-0.055260262593278785
0.78,-0.056012328797768116
0.782,-0.0568088753570033
0.784,-0.05764846311327553
0.786,-0.05852957220030654
0.788,-0.05945060425466218
0.79,-0.06040988474179255
0.792,-0.06140566539338491
0.794,-0.062436126752557344
0.796,-0.0634993808232654
0.798,-0.06459347382014759
0.8,-0.06571638901489169
0.802,-0.06686604967506507
0.804,-0.06804032209122166
0.806,-0.0692370186879728
0.808,-0.07045390121458683
0.81,-0.07168868401057149
0.812,-0.07293903734158574
0.8140000000000001,-0.07420259080092452
0.8160000000000001,-0.0754769367717313
0.8180000000000001,-0.07675963394500084
0.8200000000000001,-0.07804821088835925
0.8220000000000001,-0.07934016966053438
0.8240000000000001,-0.08063298946636265
0.8260000000000001,-0.08192413034712259
0.8280000000000001,-0.08321103690093458
0.8300000000000001,-0.08449114202792075
0.8320000000000001,-0.08576187069478572
0.834,-0.08702064371345111
0.836,-0.08826488152835361
0.838,-0.08949200800700637
0.84,-0.0906994542284167
0.842,-0.0918846622639583
0.844,-0.09304508894530161
0.846,-0.09417820961402895
0.848,-0.0952815218475846
0.85,-0.09635254915624201
0.852,-0.09738884464581347
0.854,-0.09838799464087358
0.856,-0.09934762226332598
0.858,-0.10026539096120396
0.86,-0.10113900798266473
0.862,-0.10196622779022005
0.864,-0.10274485541032383
0.866,-0.10347274971353163
0.868,-0.10414782662054758
0.87,-0.1047680622295756
0.872,-0.10533149586050328
0.874,-0.10583623301156869
0.876,-0.10628044822428027
0.878,-0.10666238785248966
0.88,-0.1069803727316583
0.882,-0.1072328007444942
0.884,-0.10741814927928439
0.886,-0.10753497757740269
0.888,-0.10758192896662702
0.89,-0.10755773297706217
0.892,-0.10746120733663317
0.894,-0.10729125984328325
0.896,-0.10704689011118348
0.898,-0.10672719118844559
0.9,-0.10633135104400501
0.902,-0.10585865392153107
0.904,-0.10530848155840933
0.906,-0.10468031426803115
0.908,-0.10397373188382031
0.91,-0.10318841456362352
0.912,-0.10232414345328816
0.914,-0.10138080120845155
0.916,-0.10035837237376691
0.918,-0.09925694361899418
0.92,-0.09807670383158512
0.922,-0.09681794406559827
0.924,-0.09548105734698134
0.926,-0.09406653833546347
0.928,-0.09257498284350296
0.93,-0.09100708721293879
0.932,-0.08936364755019724
0.934,-0.08764555882110353
0.936,-0.08585381380655085
0.9380000000000001,-0.08398950192047361
0.9400000000000001,-0.08205380789176872
0.9420000000000001,-0.08004801031200229
0.9440000000000001,-0.07797348005092794
0.9460000000000001,-0.07583167854203315
0.9480000000000001,-0.07362415594051154
0.9500000000000001,-0.0713525491562421
0.9520000000000001,-0.06901857976453438
0.9540000000000001,-0.06662405179757001
0.9560000000000001,-0.06417084941964118
0.9580000000000001,-0.06166093448945387
0.96,-0.059096344012919966
0.962,-0.05647918749002043
0.964,-0.053811644159473225
0.966,-0.051095960145081436
0.968,-0.04833444550777864
0.97,-0.04552947120752235
0.972,-0.04268346597931563
0.974,-0.03979891312775516
0.976,-0.03687834724462246
0.978,-0.03392435085414698
0.98,-0.030939550990664463
0.982,-0.027926615713497575
0.984,-0.024888250563973244
0.986,-0.021827194969569273
0.988,-0.018746218600262377
0.99,-0.015648117682217542
0.992,-0.012535711274014975
0.994,-0.009411837510667636
0.996,-0.00627934982073041
0.998,-0.00314111312183212
1.0,-6.123233995736766e-17
1.002,0.0031411131218319977
1.004,0.006279349820730288
1.006,0.009411837510667513
1.008,0.012535711274014854
1.01,0.01564811768221742
1.012,0.01874621860026225
1.014,0.021827194969569155
1.016,0.024888250563973126
1.018,0.027926615713497457
1.02,0.03093955099066435
1.022,0.03392435085414687
1.024,0.03687834724462235
1.026,0.03979891312775505
1.028,0.04268346597931552
1.03,0.04552947120752224
1.032,0.04833444550777853
1.034,0.051095960145081325
1.036,0.05381164415947312
1.038,0.05647918749002032
1.04,0.059096344012919876
1.042,0.061660934489453964
1.044,0.06417084941964128
1.046,0.06662405179757
1.048,0.0690185797645344
1.05,0.07135254915624212
1.052,0.07362415594051153
1.054,0.07583167854203327
1.056,0.07797348005092802
1.058,0.08004801031200229
1.06,0.0820538078917688
1.062,0.08398950192047369
1.064,0.08585381380655087
1.066,0.08764555882110346
1.068,0.08936364755019721
1.07,0.0910070872129388
1.072,0.09257498284350296
1.074,0.09406653833546352
1.076,0.09548105734698137
1.078,0.0968179440655983
1.08,0.09807670383158515
1.082,0.0992569436189942
1.084,0.10035837237376688
1.086,0.10138080120845151
1.088,0.1023241434532882
1.09,0.10318841456362356
1.092,0.10397373188382032
1.094,0.10468031426803118
1.096,0.10530848155840938
1.098,0.10585865392153107
1.1,0.10633135104400507
1.102,0.10672719118844565
1.104,0.10704689011118343
1.106,0.10729125984328325
1.108,0.10746120733663325
1.11,0.10755773297706213
1.112,0.1075819289666271
1.114,0.10753497757740275
1.116,0.10741814927928435
1.118,0.10723280074449429
1.12,0.10698037273165838
1.122,0.10666238785248955
1.124,0.10628044822428018
1.1260000000000001,0.10583623301156878
1.1280000000000001,0.10533149586050324
1.1300000000000001,0.10476806222957555
1.1320000000000001,0.10414782662054768
1.1340000000000001,0.10347274971353156
1.1360000000000001,0.10274485541032377
1.1380000000000001,0.10196622779022015
1.1400000000000001,0.10113900798266462
1.1420000000000001,0.10026539096120383
1.1440000000000001,0.09934762226332608
1.1460000000000001,0.09838799464087353
1.1480000000000001,0.09738884464581339
1.1500000000000001,0.09635254915624211
1.1520000000000001,0.09528152184758461
1.154,0.0941782096140291
1.156,0.0930450889453017
1.158,0.09188466226395839
1.16,0.09069945422841687
1.162,0.08949200800700645
1.164,0.08826488152835377
1.166,0.08702064371345133
1.168,0.08576187069478576
1.17,0.08449114202792071
1.172,0.08321103690093473
1.174,0.08192413034712263
1.176,0.0806329894663626
1.178,0.07934016966053453
1.18,0.07804821088835931
1.182,0.07675963394500081
1.184,0.07547693677173144
1.186,0.07420259080092456
1.188,0.0729390373415857
1.19,0.07168868401057164
1.192,0.07045390121458689
1.194,0.06923701868797286
1.196,0.06804032209122178
1.198,0.0668660496750651
1.2,0.06571638901489173
1.202,0.06459347382014771
1.204,0.06349938082326542
1.206,0.062436126752557386
1.208,0.06140566539338502
1.21,0.0604098847417926
1.212,0.05945060425466221
1.214,0.05852957220030663
1.216,0.05764846311327557
1.218,0.056808875357003345
1.22,0.05601232879776819
1.222,0.05526026259327882
1.224,0.05455403309903914
1.226,0.05389491189547291
1.228,0.053284083938619276
1.23,0.05272264583703522
1.232,0.05221160425735766
1.234,0.0517518744607979
1.236,0.05134427897265357
1.238,0.05098954638673258
1.24,0.050688310306392745
1.242,0.050441108423706055
1.244,0.050248381738058526
1.246,0.050110473915299304
1.248,0.05002763078835215
1.25,0.05
1.252,0.05002763078835215
1.254,0.0501104739152993
1.256,0.05024838173805851
1.258,0.05044110842370604
1.26,0.050688310306392724
1.262,0.05098954638673256
1.264,0.05134427897265355
1.266,0.051751874460797875
1.268,0.05221160425735763
1.27,0.0527226458370352
1.272,0.05328408393861924
1.274,0.053894911895472894
1.276,0.05455403309903911
1.278,0.05526026259327878
1.28,0.05601232879776814
1.282,0.05680887535700329
1.284,0.05764846311327552
1.286,0.05852957220030659
1.288,0.0594506042546622
1.29,0.060409884741792534
1.292,0.061405665393385
1.294,0.06243612675255734
1.296,0.0634993808232654
1.298,0.06459347382014763
1.3,0.06571638901489167
1.302,0.06686604967506501
1.304,0.06804032209122174
1.306,0.06923701868797283
1.308,0.07045390121458682
1.31,0.07168868401057162
1.312,0.07293903734158565
1.314,0.07420259080092453
1.316,0.07547693677173134
1.318,0.07675963394500074
1.32,0.07804821088835921
1.322,0.07934016966053446
1.324,0.08063298946636249
1.326,0.08192413034712258
1.328,0.0832110369009347
1.33,0.08449114202792064
1.332,0.08576187069478575
1.334,0.08702064371345122
1.336,0.08826488152835368
1.338,0.08949200800700634
1.34,0.09069945422841683
1.342,0.09188466226395828
1.344,0.09304508894530164
1.346,0.09417820961402912
1.348,0.09528152184758462
1.35,0.09635254915624218
1.352,0.09738884464581357
1.354,0.09838799464087358
1.356,0.0993476222633261
1.358,0.10026539096120404
1.36,0.10113900798266462
1.362,0.10196622779022013
1.364,0.10274485541032397
1.366,0.10347274971353156
1.368,0.10414782662054772
1.37,0.10476806222957569
1.372,0.10533149586050328
1.374,0.10583623301156875
1.3760000000000001,0.10628044822428033
1.3780000000000001,0.10666238785248952
1.3800000000000001,0.10698037273165834
1.3820000000000001,0.10723280074449432
1.3840000000000001,0.10741814927928432
1.3860000000000001,0.1075349775774028
1.3880000000000001,0.10758192896662705
1.3900000000000001,0.10755773297706217
1.3920000000000001,0.10746120733663318
1.3940000000000001,0.10729125984328326
1.3960000000000001,0.10704689011118335
1.3980000000000001,0.10672719118844558
1.4000000000000001,0.10633135104400507
1.4020000000000001,0.10585865392153102
1.4040000000000001,0.10530848155840938
1.4060000000000001,0.10468031426803111
1.408,0.10397373188382042
1.41,0.1031884145636236
1.412,0.10232414345328832
1.414,0.10138080120845155
1.416,0.100358372373767
1.418,0.09925694361899419
1.42,0.0980767038315852
1.422,0.0968179440655983
1.424,0.09548105734698142
1.426,0.09406653833546368
1.428,0.09257498284350305
1.43,0.09100708721293896
1.432,0.0893636475501973
1.434,0.08764555882110363
1.436,0.08585381380655088
1.438,0.08398950192047377
1.44,0.0820538078917688
1.442,0.08004801031200239
1.444,0.07797348005092805
1.446,0.07583167854203336
1.448,0.07362415594051172
1.45,0.07135254915624224
1.452,0.0690185797645346
1.454,0.06662405179757003
1.456,0.06417084941964141
1.458,0.06166093448945402
1.46,0.059096344012919994
1.462,0.056479187490020365
1.464,0.05381164415947326
1.466,0.051095960145081554
1.468,0.04833444550777866
1.47,0.045529471207522466
1.472,0.04268346597931567
1.474,0.03979891312775519
1.476,0.036878347244622404
1.478,0.03392435085414701
1.48,0.030939550990664408
1.482,0.02792661571349761
1.484,0.02488825056397336
1.486,0.021827194969569308
1.488,0.018746218600262494
1.49,0.01564811768221757
1.492,0.012535711274015007
1.494,0.009411837510667577
1.496,0.00627934982073044
1.498,0.003141113121832062
1.5,9.184850993605148e-17
1.502,-0.003141113121831878
1.504,-0.006279349820730257
1.506,-0.009411837510667393
1.508,-0.012535711274014823
1.51,-0.01564811768221739
1.512,-0.018746218600262314
1.514,-0.021827194969569128
1.516,-0.02488825056397318
1.518,-0.02792661571349743
1.52,-0.03093955099066423
1.522,-0.033924350854146836
1.524,-0.03687834724462223
1.526,-0.03979891312775502
1.528,-0.0426834659793155
1.53,-0.0455294712075223
1.532,-0.0483344455077785
1.534,-0.05109596014508139
1.536,-0.05381164415947309
1.538,-0.05647918749002021
1.54,-0.05909634401291984
1.542,-0.06166093448945387
1.544,-0.06417084941964127
1.546,-0.06662405179756989
1.548,-0.06901857976453446
1.55,-0.0713525491562421
1.552,-0.07362415594051161
1.554,-0.07583167854203324
1.556,-0.07797348005092793
1.558,-0.08004801031200227
1.56,-0.08205380789176869
1.562,-0.08398950192047366
1.564,-0.08585381380655077
1.566,-0.08764555882110352
1.568,-0.08936364755019721
1.57,-0.09100708721293888
1.572,-0.09257498284350296
1.574,-0.09406653833546358
1.576,-0.09548105734698134
1.578,-0.09681794406559821
1.58,-0.09807670383158515
1.582,-0.09925694361899412
1.584,-0.10035837237376695
1.586,-0.1013808012084515
1.588,-0.10232414345328827
1.59,-0.10318841456362356
1.592,-0.10397373188382039
1.594,-0.10468031426803118
1.596,-0.1053084815584093
1.598,-0.10585865392153108
1.6,-0.10633135104400498
1.602,-0.10672719118844565
1.604,-0.1070468901111834
1.606,-0.1072912598432833
1.608,-0.10746120733663324
1.61,-0.1075577329770622
1.612,-0.10758192896662709
1.614,-0.1075349775774027
1.616,-0.10741814927928436
1.618,-0.10723280074449423
1.62,-0.10698037273165838
1.622,-0.10666238785248956
1.624,-0.10628044822428023
1.6260000000000001,-0.10583623301156879
1.6280000000000001,-0.10533149586050329
1.6300000000000001,-0.10476806222957555
1.6320000000000001,-0.10414782662054761
1.6340000000000001,-0.10347274971353157
1.6360000000000001,-0.10274485541032372
1.6380000000000001,-0.10196622779022015
1.6400000000000001,-0.10113900798266463
1.6420000000000001,-0.10026539096120389
1.6440000000000001,-0.0993476222633261
1.6460000000000001,-0.09838799464087358
1.6480000000000001,-0.09738884464581339
1.6500000000000001,-0.09635254915624207
1.6520000000000001,-0.09528152184758461
1.6540000000000001,-0.09417820961402884
1.6560000000000001,-0.09304508894530164
1.6580000000000001,-0.09188466226395828
1.6600000000000001,-0.09069945422841663
1.6620000000000001,-0.08949200800700632
1.6640000000000001,-0.08826488152835367
1.666,-0.08702064371345129
1.668,-0.08576187069478582
1.67,-0.08449114202792071
1.672,-0.08321103690093477
1.674,-0.08192413034712265
1.676,-0.08063298946636258
1.678,-0.07934016966053455
1.68,-0.0780482108883593
1.682,-0.07675963394500082
1.684,-0.07547693677173142
1.686,-0.07420259080092462
1.688,-0.0729390373415857
1.69,-0.07168868401057167
1.692,-0.0704539012145869
1.694,-0.0692370186879729
1.696,-0.0680403220912218
1.698,-0.06686604967506508
1.7,-0.06571638901489188
1.702,-0.06459347382014755
1.704,-0.06349938082326545
1.706,-0.06243612675255752
1.708,-0.061405665393384934
1.71,-0.06040988474179261
1.712,-0.05945060425466236
1.714,-0.05852957220030653
1.716,-0.05764846311327556
1.718,-0.05680887535700344
1.72,-0.05601232879776809
1.722,-0.05526026259327883
1.724,-0.05455403309903923
1.726,-0.053894911895472845
1.728,-0.05328408393861927
1.73,-0.0527226458370353
1.732,-0.05221160425735761
1.734,-0.05175187446079789
1.736,-0.051344278972653604
1.738,-0.050989546386732525
1.74,-0.050688310306392745
1.742,-0.05044110842370608
1.744,-0.050248381738058505
1.746,-0.050110473915299304
1.748,-0.05002763078835216
1.75,-0.05
1.752,-0.05002763078835215
1.754,-0.05011047391529928
1.756,-0.05024838173805851
1.758,-0.050441108423706034
1.76,-0.05068831030639269
1.762,-0.05098954638673255
1.764,-0.05134427897265354
1.766,-0.051751874460797806
1.768,-0.05221160425735763
1.77,-0.052722645837035204
1.772,-0.053284083938619164
1.774,-0.05389491189547288
1.776,-0.0545540330990391
1.778,-0.055260262593278694
1.78,-0.05601232879776813
1.782,-0.056808875357003276
1.784,-0.0576484631132754
1.786,-0.058529572200306586
1.788,-0.059450604254662184
1.79,-0.060409884741792416
1.792,-0.061405665393384996
1.794,-0.06243612675255732
1.796,-0.06349938082326526
1.798,-0.06459347382014761
1.8,-0.06571638901489167
1.802,-0.06686604967506486
1.804,-0.06804032209122171
1.806,-0.06923701868797282
1.808,-0.07045390121458665
1.81,-0.0716886840105716
1.812,-0.07293903734158562
1.814,-0.07420259080092437
1.816,-0.07547693677173134
1.818,-0.07675963394500074
1.82,-0.07804821088835902
1.822,-0.07934016966053445
1.824,-0.08063298946636249
1.826,-0.08192413034712238
1.828,-0.08321103690093469
1.83,-0.08449114202792063
1.832,-0.08576187069478555
1.834,-0.08702064371345121
1.836,-0.08826488152835368
1.838,-0.08949200800700616
1.84,-0.0906994542284168
1.842,-0.09188466226395826
1.844,-0.09304508894530146
1.846,-0.09417820961402909
1.848,-0.09528152184758461
1.85,-0.096352549156242
1.852,-0.09738884464581356
1.854,-0.09838799464087358
1.856,-0.09934762226332593
1.858,-0.10026539096120404
1.86,-0.1011390079826646
1.862,-0.10196622779021998
1.864,-0.10274485541032395
1.866,-0.10347274971353156
1.868,-0.10414782662054757
1.87,-0.10476806222957567
1.872,-0.10533149586050328
1.874,-0.10583623301156889
1.8760000000000001,-0.10628044822428033
1.8780000000000001,-0.10666238785248952
1.8800000000000001,-0.10698037273165846
1.8820000000000001,-0.10723280074449432
1.8840000000000001,-0.10741814927928431
1.8860000000000001,-0.10753497757740288
1.8880000000000001,-0.10758192896662705
1.8900000000000001,-0.10755773297706216
1.8920000000000001,-0.10746120733663328
1.8940000000000001,-0.10729125984328325
1.8960000000000001,-0.10704689011118335
1.8980000000000001,-0.10672719118844565
1.9000000000000001,-0.10633135104400507
1.9020000000000001,-0.10585865392153102
1.9040000000000001,-0.10530848155840944
1.9060000000000001,-0.10468031426803112
1.9080000000000001,-0.10397373188382031
1.9100000000000001,-0.1031884145636235
1.9120000000000001,-0.10232414345328819
1.9140000000000001,-0.10138080120845142
1.9160000000000001,-0.10035837237376687
1.9180000000000001,-0.09925694361899419
1.92,-0.09807670383158522
1.922,-0.0968179440655983
1.924,-0.09548105734698148
1.926,-0.09406653833546366
1.928,-0.09257498284350307
1.93,-0.09100708721293901
1.932,-0.08936364755019727
1.934,-0.08764555882110364
1.936,-0.08585381380655097
1.938,-0.08398950192047373
1.94,-0.08205380789176883
1.942,-0.08004801031200248
1.944,-0.07797348005092798
1.946,-0.07583167854203338
1.948,-0.07362415594051185
1.95,-0.07135254915624216
1.952,-0.06901857976453463
1.954,-0.06662405179757018
1.956,-0.06417084941964131
1.958,-0.06166093448945403
1.96,-0.05909634401292015
1.962,-0.05647918749002026
1.964,-0.053811644159473274
1.966,-0.05109596014508172
1.968,-0.048334445507778545
1.97,-0.04552947120752249
1.972,-0.04268346597931585
1.974,-0.03979891312775506
1.976,-0.03687834724462243
1.978,-0.0339243508541472
1.98,-0.03093955099066427
1.982,-0.027926615713497638
1.984,-0.024888250563973563
1.986,-0.021827194969569162
1.988,-0.018746218600262522
1.99,-0.01564811768221778
1.992,-0.012535711274014861
1.994,-0.009411837510667606
1.996,-0.006279349820730648
1.998,-0.0031411131218319144
2.0,-1.2246467991473532e-16
2.0020000000000002,0.0031411131218322024
2.004,0.006279349820730404
2.0060000000000002,0.009411837510667894
2.008,0.012535711274014618
2.0100000000000002,0.015648117682217712
2.012,0.018746218600262283
2.0140000000000002,0.021827194969569443
2.016,0.02488825056397332
2.0180000000000002,0.027926615713497915
2.02,0.030939550990664033
2.0220000000000002,0.03392435085414715
2.024,0.0368783472446222
2.0260000000000002,0.039798913127755325
2.028,0.04268346597931563
2.0300000000000002,0.04552947120752257
2.032,0.04833444550777833
2.0340000000000003,0.05109596014508151
2.036,0.053811644159473065
2.0380000000000003,0.0564791874900205
2.04,0.05909634401291995
2.0420000000000003,0.06166093448945426
2.044,0.0641708494196411
2.0460000000000003,0.06662405179757017
2.048,0.06901857976453445
2.05,0.0713525491562418
2.052,0.07362415594051167
2.054,0.07583167854203285
2.056,0.0779734800509278
2.058,0.080048010312002
2.06,0.08205380789176867
2.062,0.08398950192047343
2.064,0.08585381380655081
2.066,0.08764555882110323
2.068,0.08936364755019713
2.07,0.09100708721293865
2.072,0.09257498284350295
2.074,0.09406653833546338
2.076,0.09548105734698137
2.078,0.09681794406559815
2.08,0.09807670383158512
2.082,0.09925694361899409
2.084,0.10035837237376694
2.086,0.10138080120845136
2.088,0.10232414345328825
2.09,0.10318841456362343
2.092,0.1039737318838204
2.094,0.10468031426803107
2.096,0.1053084815584093
2.098,0.10585865392153097
2.1,0.10633135104400493
2.102,0.10672719118844562
2.104,0.10704689011118348
2.106,0.10729125984328325
2.108,0.10746120733663322
2.11,0.10755773297706216
2.112,0.10758192896662701
2.114,0.10753497757740288
2.116,0.10741814927928446
2.118,0.10723280074449433
2.12,0.10698037273165838
2.122,0.10666238785248953
2.124,0.10628044822428023
2.126,0.10583623301156891
2.128,0.10533149586050344
2.13,0.10476806222957571
2.132,0.10414782662054763
2.134,0.1034727497135316
2.136,0.10274485541032372
2.138,0.10196622779022003
2.14,0.10113900798266479
2.142,0.1002653909612041
2.144,0.09934762226332611
2.146,0.09838799464087364
2.148,0.0973888446458134
2.15,0.09635254915624208
2.152,0.0952815218475848
2.154,0.09417820961402919
2.156,0.09304508894530164
2.158,0.09188466226395836
2.16,0.09069945422841663
2.162,0.08949200800700624
2.164,0.08826488152835386
2.166,0.0870206437134513
2.168,0.08576187069478566
2.17,0.08449114202792074
2.172,0.08321103690093444
2.174,0.08192413034712248
2.176,0.08063298946636267
2.178,0.07934016966053455
2.18,0.0780482108883592
2.182,0.07675963394500084
2.184,0.07547693677173117
2.186,0.07420259080092445
2.188,0.07293903734158579
2.19,0.07168868401057168
2.192,0.07045390121458682
2.194,0.0692370186879729
2.196,0.06804032209122157
2.198,0.06686604967506496
2.2,0.06571638901489181
2.202,0.0645934738201477
2.204,0.0634993808232654
2.206,0.0624361267525574
2.208,0.061405665393384816
2.21,0.060409884741792486
2.212,0.059450604254662254
2.214,0.05852957220030665
2.216,0.05764846311327549
2.218,0.056808875357003345
2.22,0.056012328797768046
2.222,0.05526026259327875
2.224,0.05455403309903919
2.226,0.05389491189547292
2.228,0.053284083938619234
2.23,0.052722645837035245
2.232,0.05221160425735757
2.234,0.05175187446079785
2.236,0.05134427897265359
2.238,0.05098954638673257
2.24,0.05068831030639273
2.242,0.050441108423706055
2.244,0.050248381738058484
2.246,0.0501104739152993
2.248,0.050027630788352144
2.25,0.05
2.2520000000000002,0.05002763078835215
2.254,0.0501104739152993
2.2560000000000002,0.05024838173805853
2.258,0.050441108423706055
2.2600000000000002,0.050688310306392786
2.262,0.050989546386732504
2.2640000000000002,0.05134427897265356
2.266,0.05175187446079787
2.2680000000000002,0.05221160425735768
2.27,0.052722645837035266
2.2720000000000002,0.053284083938619345
2.274,0.0538949118954728
2.2760000000000002,0.05455403309903917
2.278,0.05526026259327877
2.2800000000000002,0.05601232879776821
2.282,0.05680887535700337
2.2840000000000003,0.057648463113275705
2.286,0.05852957220030646
2.2880000000000003,0.05945060425466225
2.29,0.06040988474179252
2.2920000000000003,0.06140566539338505
2.294,0.062436126752557435
2.2960000000000003,0.0634993808232656
2.298,0.06459347382014746
2.3000000000000003,0.06571638901489174
2.302,0.06686604967506499
2.3040000000000003,0.0680403220912218
2.306,0.06923701868797295
2.308,0.07045390121458654
2.31,0.07168868401057142
2.312,0.07293903734158551
2.314,0.0742025908009245
2.316,0.07547693677173122
2.318,0.07675963394500088
2.32,0.07804821088835892
2.322,0.07934016966053427
2.324,0.08063298946636238
2.326,0.08192413034712255
2.328,0.08321103690093451
2.33,0.08449114202792078
2.332,0.08576187069478537
2.334,0.08702064371345103
2.336,0.08826488152835357
2.338,0.08949200800700631
2.34,0.09069945422841671
2.342,0.09188466226395844
2.344,0.09304508894530138
2.346,0.09417820961402892
2.348,0.09528152184758452
2.35,0.09635254915624215
2.352,0.09738884464581349
2.354,0.09838799464087374
2.356,0.09934762226332586
2.358,0.10026539096120388
2.36,0.10113900798266456
2.362,0.10196622779022012
2.364,0.1027448554103238
2.366,0.10347274971353168
2.368,0.10414782662054743
2.37,0.10476806222957552
2.372,0.10533149586050325
2.374,0.10583623301156875
2.376,0.10628044822428034
2.378,0.10666238785248963
2.38,0.10698037273165824
2.382,0.1072328007444942
2.384,0.10741814927928435
2.386,0.10753497757740278
2.388,0.1075819289666271
2.39,0.10755773297706223
2.392,0.10746120733663317
2.394,0.1072912598432832
2.396,0.10704689011118343
2.398,0.10672719118844559
2.4,0.10633135104400501
2.402,0.10585865392153107
2.404,0.1053084815584093
2.406,0.10468031426803108
2.408,0.10397373188382045
2.41,0.10318841456362349
2.412,0.10232414345328833
2.414,0.10138080120845144
2.416,0.10035837237376702
2.418,0.0992569436189942
2.42,0.09807670383158523
2.422,0.0968179440655983
2.424,0.09548105734698145
2.426,0.09406653833546348
2.428,0.09257498284350311
2.43,0.09100708721293885
2.432,0.08936364755019732
2.434,0.08764555882110345
2.436,0.08585381380655091
2.438,0.08398950192047352
2.44,0.08205380789176893
2.442,0.08004801031200226
2.444,0.07797348005092808
2.446,0.07583167854203314
2.448,0.07362415594051178
2.45,0.0713525491562419
2.452,0.06901857976453475
2.454,0.06662405179756992
2.456,0.06417084941964146
2.458,0.061660934489453936
2.46,0.05909634401292005
2.462,0.05647918749002015
2.464,0.05381164415947345
2.466,0.05109596014508143
2.468,0.048334445507778726
2.47,0.045529471207522196
2.472,0.04268346597931572
2.474,0.039798913127754756
2.476,0.03687834724462262
2.478,0.0339243508541469
2.48,0.030939550990664463
2.482,0.027926615713497326
2.484,0.024888250563973417
2.486,0.02182719496956885
2.488,0.018746218600262727
2.49,0.015648117682217456
2.492,0.012535711274015066
2.494,0.00941183751066746
2.496,0.006279349820730501
2.498,0.003141113121831768
2.5,3.3071653383344424e-16
2.5020000000000002,-0.0031411131218319946
2.504,-0.006279349820730196
2.5060000000000002,-0.009411837510667686
2.508,-0.012535711274014764
2.5100000000000002,-0.015648117682217855
2.512,-0.018746218600262425
2.5140000000000002,-0.021827194969569242
2.516,-0.024888250563973126
2.5180000000000002,-0.027926615713497714
2.52,-0.030939550990664175
2.5220000000000002,-0.03392435085414728
2.524,-0.036878347244622335
2.5260000000000002,-0.03979891312775514
2.528,-0.04268346597931544
2.5300000000000002,-0.04552947120752239
2.532,-0.04833444550777845
2.5340000000000003,-0.05109596014508162
2.536,-0.05381164415947318
2.5380000000000003,-0.05647918749002033
2.54,-0.0590963440129198
2.5420000000000003,-0.06166093448945411
2.544,-0.06417084941964121
2.5460000000000003,-0.06662405179757025
2.548,-0.06901857976453435
2.5500000000000003,-0.07135254915624223
2.552,-0.07362415594051155
2.5540000000000003,-0.07583167854203328
2.556,-0.07797348005092788
2.5580000000000003,-0.08004801031200257
2.56,-0.08205380789176892
2.562,-0.0839895019204735
2.564,-0.08585381380655074
2.566,-0.08764555882110328
2.568,-0.08936364755019732
2.57,-0.09100708721293851
2.572,-0.09257498284350296
2.574,-0.09406653833546334
2.576,-0.09548105734698117
2.578,-0.09681794406559802
2.58,-0.09807670383158512
2.582,-0.09925694361899409
2.584,-0.10035837237376677
2.586,-0.10138080120845135
2.588,-0.10232414345328825
2.59,-0.10318841456362357
2.592,-0.10397373188382023
2.594,-0.10468031426803102
2.596,-0.10530848155840941
2.598,-0.10585865392153115
2.6,-0.10633135104400497
2.602,-0.10672719118844556
2.604,-0.10704689011118354
2.606,-0.10729125984328303
2.608,-0.10746120733663317
2.61,-0.10755773297706224
2.612,-0.10758192896662697
2.614,-0.10753497757740266
2.616,-0.10741814927928436
2.618,-0.10723280074449422
2.62,-0.10698037273165814
2.622,-0.10666238785248966
2.624,-0.10628044822428037
2.626,-0.10583623301156891
2.628,-0.10533149586050318
2.63,-0.10476806222957558
2.632,-0.10414782662054761
2.634,-0.10347274971353188
2.636,-0.10274485541032385
2.638,-0.10196622779022019
2.64,-0.10113900798266474
2.642,-0.10026539096120385
2.644,-0.09934762226332594
2.646,-0.09838799464087383
2.648,-0.09738884464581371
2.65,-0.09635254915624215
2.652,-0.09528152184758464
2.654,-0.09417820961402903
2.656,-0.09304508894530139
2.658,-0.09188466226395856
2.66,-0.09069945422841683
2.662,-0.08949200800700652
2.664,-0.08826488152835361
2.666,-0.08702064371345114
2.668,-0.08576187069478557
2.67,-0.08449114202792102
2.672,-0.08321103690093462
2.674,-0.08192413034712268
2.676,-0.08063298946636259
2.678,-0.07934016966053431
2.68,-0.07804821088835903
2.682,-0.076759633945001
2.684,-0.07547693677173142
2.686,-0.07420259080092458
2.688,-0.07293903734158563
2.69,-0.07168868401057155
2.692,-0.07045390121458661
2.694,-0.06923701868797301
2.696,-0.06804032209122172
2.698,-0.06686604967506517
2.7,-0.06571638901489163
2.702,-0.06459347382014756
2.704,-0.06349938082326527
2.706,-0.06243612675255759
2.708,-0.06140566539338494
2.71,-0.06040988474179262
2.712,-0.059450604254662184
2.714,-0.05852957220030651
2.716,-0.05764846311327539
2.718,-0.05680887535700346
2.72,-0.05601232879776817
2.722,-0.055260262593278806
2.724,-0.05455403309903911
2.726,-0.05389491189547285
2.728,-0.053284083938619144
2.73,-0.05272264583703529
2.732,-0.05221160425735764
2.734,-0.05175187446079792
2.736,-0.05134427897265352
2.738,-0.05098954638673254
2.74,-0.0506883103063927
2.742,-0.050441108423706096
2.744,-0.05024838173805851
2.746,-0.05011047391529931
2.748,-0.05002763078835215
2.75,-0.05
2.7520000000000002,-0.05002763078835216
2.754,-0.05011047391529928
2.7560000000000002,-0.05024838173805851
2.758,-0.05044110842370604
2.7600000000000002,-0.050688310306392745
2.762,-0.050989546386732545
2.7640000000000002,-0.051344278972653624
2.766,-0.051751874460797806
2.7680000000000002,-0.05221160425735761
2.77,-0.05272264583703516
2.7720000000000002,-0.0532840839386193
2.774,-0.053894911895472866
2.7760000000000002,-0.05455403309903924
2.778,-0.05526026259327864
2.7800000000000002,-0.05601232879776812
2.782,-0.05680887535700326
2.7840000000000003,-0.05764846311327555
2.786,-0.05852957220030652
2.7880000000000003,-0.059450604254662365
2.79,-0.06040988474179239
2.7920000000000003,-0.06140566539338487
2.794,-0.062436126752557344
2.7960000000000003,-0.06349938082326545
2.798,-0.0645934738201476
2.8000000000000003,-0.06571638901489193
2.802,-0.0668660496750649
2.8040000000000003,-0.06804032209122166
2.806,-0.06923701868797273
2.8080000000000003,-0.07045390121458694
2.81,-0.07168868401057156
2.8120000000000003,-0.07293903734158586
2.814,-0.07420259080092426
2.816,-0.07547693677173112
2.818,-0.07675963394500071
2.82,-0.07804821088835907
2.822,-0.07934016966053434
2.824,-0.08063298946636263
2.826,-0.08192413034712236
2.828,-0.08321103690093432
2.83,-0.0844911420279207
2.832,-0.08576187069478562
2.834,-0.08702064371345118
2.836,-0.08826488152835366
2.838,-0.08949200800700621
2.84,-0.09069945422841652
2.842,-0.09188466226395825
2.844,-0.09304508894530143
2.846,-0.09417820961402908
2.848,-0.09528152184758469
2.85,-0.09635254915624188
2.852,-0.09738884464581342
2.854,-0.09838799464087356
2.856,-0.09934762226332602
2.858,-0.1002653909612039
2.86,-0.10113900798266481
2.862,-0.10196622779021997
2.864,-0.10274485541032365
2.866,-0.10347274971353165
2.868,-0.10414782662054767
2.87,-0.10476806222957566
2.872,-0.10533149586050325
2.874,-0.105836233011569
2.876,-0.1062804482242802
2.878,-0.10666238785248952
2.88,-0.10698037273165822
2.882,-0.10723280074449432
2.884,-0.10741814927928445
2.886,-0.10753497757740274
2.888,-0.10758192896662688
2.89,-0.10755773297706214
2.892,-0.10746120733663325
2.894,-0.10729125984328312
2.896,-0.10704689011118364
2.898,-0.10672719118844566
2.9,-0.10633135104400496
2.902,-0.10585865392153117
2.904,-0.10530848155840951
2.906,-0.10468031426803112
2.908,-0.10397373188382034
2.91,-0.10318841456362368
2.912,-0.10232414345328833
2.914,-0.10138080120845144
2.916,-0.10035837237376688
2.918,-0.09925694361899422
2.92,-0.09807670383158523
2.922,-0.09681794406559813
2.924,-0.09548105734698134
2.926,-0.09406653833546352
2.928,-0.0925749828435031
2.93,-0.09100708721293864
2.932,-0.08936364755019746
2.934,-0.08764555882110339
2.936,-0.085853813806551
2.938,-0.08398950192047377
2.94,-0.08205380789176904
2.942,-0.0800480103120022
2.944,-0.07797348005092802
2.946,-0.07583167854203324
2.948,-0.07362415594051189
2.95,-0.07135254915624203
2.952,-0.0690185797645345
2.954,-0.06662405179757
2.956,-0.06417084941964137
2.958,-0.06166093448945366
2.96,-0.05909634401292002
2.962,-0.056479187490020316
2.964,-0.05381164415947333
2.966,-0.05109596014508114
2.968,-0.048334445507778774
2.97,-0.04552947120752207
2.972,-0.042683465979315896
2.974,-0.03979891312775512
2.976,-0.03687834724462266
2.978,-0.03392435085414676
2.98,-0.030939550990664328
2.982,-0.02792661571349736
2.984,-0.024888250563973622
2.986,-0.021827194969569048
2.988,-0.018746218600262408
2.99,-0.015648117682217487
2.992,-0.01253571127401492
2.994,-0.009411837510667138
2.996,-0.006279349820730532
2.998,-0.003141113121831976
3.0,-1.8369701987210297e-16
3.0020000000000002,0.0031411131218323195
3.004,0.006279349820730164
3.0060000000000002,0.009411837510667832
3.008,0.012535711274014556
3.0100000000000002,0.015648117682217827
3.012,0.018746218600262043
3.0140000000000002,0.021827194969569384
3.016,0.024888250563973265
3.0180000000000002,0.027926615713497676
3.02,0.030939550990663978
3.0220000000000002,0.03392435085414709
3.024,0.03687834724462232
3.0260000000000002,0.03979891312775509
3.028,0.04268346597931556
3.0300000000000002,0.04552947120752269
3.032,0.048334445507778455
3.0340000000000003,0.05109596014508144
3.036,0.05381164415947302
3.0380000000000003,0.05647918749002061
3.04,0.05909634401291973
3.0420000000000003,0.06166093448945421
3.044,0.06417084941964106
3.0460000000000003,0.06662405179757028
3.048,0.06901857976453422
3.0500000000000003,0.0713525491562423
3.052,0.07362415594051162
3.0540000000000003,0.07583167854203335
3.056,0.07797348005092777
3.0580000000000003,0.08004801031200245
3.06,0.0820538078917688
3.0620000000000003,0.08398950192047369
3.064,0.08585381380655079
3.0660000000000003,0.08764555882110375
3.068,0.08936364755019727
3.0700000000000003,0.09100708721293888
3.072,0.0925749828435029
3.074,0.09406653833546336
3.076,0.09548105734698117
3.078,0.09681794406559797
3.08,0.0980767038315851
3.082,0.09925694361899408
3.084,0.10035837237376675
3.086,0.10138080120845133
3.088,0.10232414345328823
3.09,0.10318841456362357
3.092,0.10397373188382025
3.094,0.10468031426803104
3.096,0.10530848155840944
3.098,0.10585865392153111
3.1,0.10633135104400492
3.102,0.10672719118844562
3.104,0.10704689011118361
3.106,0.1072912598432831
3.108,0.10746120733663324
3.11,0.10755773297706214
3.112,0.10758192896662688
3.114,0.10753497757740275
3.116,0.10741814927928447
3.118,0.10723280074449434
3.12,0.10698037273165827
3.122,0.10666238785248956
3.124,0.10628044822428026
3.126,0.10583623301156905
3.128,0.1053314958605033
3.13,0.10476806222957571
3.132,0.10414782662054775
3.134,0.10347274971353174
3.136,0.10274485541032373
3.138,0.10196622779022005
3.14,0.10113900798266492
3.142,0.10026539096120402
3.144,0.09934762226332612
3.146,0.09838799464087367
3.148,0.09738884464581354
3.15,0.09635254915624199
3.152,0.0952815218475848
3.154,0.0941782096140292
3.156,0.09304508894530157
3.158,0.09188466226395837
3.16,0.09069945422841666
3.162,0.08949200800700637
3.164,0.0882648815283538
3.166,0.08702064371345133
3.168,0.08576187069478576
3.17,0.08449114202792084
3.172,0.08321103690093445
3.174,0.08192413034712251
3.176,0.08063298946636277
3.178,0.07934016966053448
3.18,0.07804821088835923
3.182,0.07675963394500085
3.184,0.07547693677173126
3.186,0.07420259080092441
3.188,0.0729390373415858
3.19,0.07168868401057171
3.192,0.07045390121458676
3.194,0.06923701868797287
3.196,0.06804032209122159
3.198,0.06686604967506503
3.2,0.06571638901489178
3.202,0.06459347382014771
3.204,0.06349938082326542
3.206,0.06243612675255747
3.208,0.06140566539338483
3.21,0.060409884741792506
3.212,0.05945060425466232
3.214,0.058529572200306634
3.216,0.05764846311327551
3.218,0.056808875357003366
3.22,0.05601232879776808
3.222,0.05526026259327872
3.224,0.0545540330990392
3.226,0.053894911895472936
3.228,0.05328408393861923
3.23,0.05272264583703523
3.232,0.05221160425735758
3.234,0.051751874460797875
3.236,0.051344278972653576
3.238,0.05098954638673257
3.24,0.05068831030639274
3.242,0.050441108423706076
3.244,0.05024838173805849
3.246,0.0501104739152993
3.248,0.050027630788352144
3.25,0.05
3.2520000000000002,0.05002763078835215
3.254,0.05011047391529931
3.2560000000000002,0.050248381738058526
3.258,0.05044110842370607
3.2600000000000002,0.05068831030639278
3.262,0.050989546386732504
3.2640000000000002,0.051344278972653576
3.266,0.051751874460797855
3.2680000000000002,0.052211604257357665
3.27,0.05272264583703522
3.2720000000000002,0.05328408393861937
3.274,0.05389491189547278
3.2760000000000002,0.05455403309903915
3.278,0.05526026259327872
3.2800000000000002,0.05601232879776821
3.282,0.056808875357003366
3.2840000000000003,0.05764846311327564
3.286,0.0585295722003064
3.2880000000000003,0.05945060425466223
3.29,0.0604098847417925
3.2920000000000003,0.061405665393384996
3.294,0.06243612675255746
3.2960000000000003,0.06349938082326559
3.298,0.06459347382014745
3.3000000000000003,0.06571638901489178
3.302,0.06686604967506503
3.3040000000000003,0.06804032209122178
3.306,0.06923701868797287
3.3080000000000003,0.07045390121458708
3.31,0.07168868401057138
3.3120000000000003,0.07293903734158569
3.314,0.07420259080092442
3.3160000000000003,0.07547693677173145
3.318,0.07675963394500086
3.3200000000000003,0.07804821088835943
3.322,0.07934016966053416
3.3240000000000003,0.08063298946636263
3.326,0.08192413034712252
3.3280000000000003,0.08321103690093466
3.33,0.08449114202792087
3.332,0.08576187069478543
3.334,0.087020643713451
3.336,0.08826488152835348
3.338,0.08949200800700638
3.34,0.0906994542284167
3.342,0.0918846622639584
3.344,0.09304508894530125
3.346,0.09417820961402888
3.348,0.09528152184758451
3.35,0.09635254915624204
3.352,0.09738884464581359
3.354,0.09838799464087372
3.356,0.09934762226332583
3.358,0.10026539096120375
3.36,0.10113900798266465
3.362,0.1019662277902201
3.364,0.10274485541032378
3.366,0.10347274971353179
3.368,0.10414782662054753
3.37,0.10476806222957552
3.372,0.10533149586050311
3.374,0.10583623301156886
3.376,0.10628044822428032
3.378,0.10666238785248963
3.38,0.10698037273165811
3.382,0.1072328007444942
3.384,0.10741814927928434
3.386,0.10753497757740266
3.388,0.10758192896662697
3.39,0.10755773297706224
3.392,0.10746120733663317
3.394,0.10729125984328305
3.396,0.10704689011118357
3.398,0.10672719118844559
3.4,0.10633135104400492
3.402,0.10585865392153113
3.404,0.10530848155840955
3.406,0.10468031426803116
3.408,0.10397373188382031
3.41,0.10318841456362367
3.412,0.10232414345328833
3.414,0.10138080120845144
3.416,0.1003583723737669
3.418,0.09925694361899422
3.42,0.09807670383158526
3.422,0.09681794406559815
3.424,0.09548105734698138
3.426,0.09406653833546358
3.428,0.09257498284350307
3.43,0.09100708721293863
3.432,0.08936364755019752
3.434,0.08764555882110348
3.436,0.08585381380655108
3.438,0.08398950192047386
3.44,0.08205380789176898
3.442,0.08004801031200214
3.444,0.07797348005092813
3.446,0.07583167854203335
3.448,0.07362415594051201
3.45,0.07135254915624216
3.452,0.0690185797645344
3.454,0.0666240517975699
3.456,0.0641708494196415
3.458,0.06166093448945381
3.46,0.05909634401292019
3.462,0.05647918749002047
3.464,0.05381164415947322
3.466,0.051095960145081026
3.468,0.04833444550777895
3.47,0.04552947120752225
3.472,0.04268346597931609
3.474,0.0397989131277553
3.476,0.036878347244622536
3.478,0.03392435085414663
3.48,0.030939550990664522
3.482,0.027926615713497555
3.484,0.02488825056397382
3.486,0.021827194969569245
3.488,0.018746218600262265
3.49,0.015648117682217345
3.492,0.012535711274015128
3.494,0.009411837510667345
3.496,0.006279349820730739
3.498,0.003141113121832184
3.5,3.667750591076177e-17
3.5020000000000002,-0.003141113121832466
3.504,-0.006279349820729956
3.5060000000000002,-0.009411837510667626
3.508,-0.012535711274014351
3.5100000000000002,-0.015648117682217626
3.512,-0.01874621860026219
3.5140000000000002,-0.021827194969569527
3.516,-0.024888250563973063
3.5180000000000002,-0.027926615713497478
3.52,-0.030939550990663783
3.5220000000000002,-0.0339243508541469
3.524,-0.03687834724462245
3.5260000000000002,-0.039798913127755214
3.528,-0.04268346597931539
3.5300000000000002,-0.045529471207522515
3.532,-0.048334445507778274
3.5340000000000003,-0.051095960145081276
3.536,-0.05381164415947313
3.5380000000000003,-0.056479187490020726
3.54,-0.05909634401291958
3.5420000000000003,-0.06166093448945406
3.544,-0.06417084941964092
3.5460000000000003,-0.06662405179757014
3.548,-0.06901857976453431
3.5500000000000003,-0.0713525491562424
3.552,-0.0736241559405115
3.5540000000000003,-0.07583167854203324
3.556,-0.07797348005092766
3.5580000000000003,-0.08004801031200236
3.56,-0.08205380789176886
3.5620000000000003,-0.08398950192047373
3.564,-0.08585381380655069
3.5660000000000003,-0.08764555882110367
3.568,-0.08936364755019718
3.5700000000000003,-0.09100708721293882
3.572,-0.09257498284350293
3.5740000000000003,-0.09406653833546375
3.576,-0.09548105734698115
3.5780000000000003,-0.09681794406559834
3.58,-0.09807670383158507
3.5820000000000003,-0.09925694361899438
3.584,-0.10035837237376674
3.586,-0.10138080120845133
3.588,-0.10232414345328823
3.59,-0.1031884145636236
3.592,-0.10397373188382027
3.594,-0.10468031426803101
3.596,-0.10530848155840938
3.598,-0.10585865392153115
3.6,-0.10633135104400498
3.602,-0.10672719118844567
3.604,-0.10704689011118368
3.606,-0.10729125984328303
3.608,-0.10746120733663317
3.61,-0.10755773297706223
3.612,-0.10758192896662697
3.614,-0.10753497757740285
3.616,-0.10741814927928457
3.618,-0.10723280074449423
3.62,-0.10698037273165814
3.622,-0.10666238785248969
3.624,-0.10628044822428039
3.626,-0.10583623301156919
3.628,-0.10533149586050346
3.63,-0.1047680622295756
3.632,-0.10414782662054763
3.634,-0.10347274971353188
3.636,-0.1027448554103239
3.638,-0.10196622779021991
3.64,-0.10113900798266508
3.642,-0.10026539096120386
3.644,-0.09934762226332597
3.646,-0.09838799464087385
3.648,-0.09738884464581371
3.65,-0.09635254915624183
3.652,-0.095281521847585
3.654,-0.09417820961402903
3.656,-0.09304508894530139
3.658,-0.09188466226395856
3.66,-0.09069945422841685
3.662,-0.0894920080070062
3.664,-0.08826488152835399
3.666,-0.08702064371345118
3.668,-0.08576187069478561
3.67,-0.08449114202792103
3.672,-0.08321103690093465
3.674,-0.08192413034712236
3.676,-0.08063298946636296
3.678,-0.07934016966053432
3.68,-0.07804821088835907
3.682,-0.07675963394500104
3.684,-0.07547693677173144
3.686,-0.07420259080092426
3.688,-0.072939037341586
3.69,-0.07168868401057156
3.692,-0.07045390121458663
3.694,-0.06923701868797304
3.696,-0.06804032209122175
3.698,-0.0668660496750649
3.7,-0.06571638901489193
3.702,-0.0645934738201476
3.704,-0.06349938082326528
3.706,-0.0624361267525576
3.708,-0.06140566539338497
3.71,-0.0604098847417924
3.712,-0.05945060425466245
3.714,-0.058529572200306516
3.716,-0.057648463113275414
3.718,-0.05680887535700348
3.72,-0.056012328797768185
3.722,-0.055260262593278646
3.724,-0.05455403309903929
3.726,-0.053894911895472866
3.728,-0.05328408393861916
3.73,-0.0527226458370353
3.732,-0.052211604257357644
3.734,-0.05175187446079782
3.736,-0.051344278972653624
3.738,-0.050989546386732545
3.74,-0.0506883103063927
3.742,-0.05044110842370609
3.744,-0.05024838173805851
3.746,-0.05011047391529928
3.748,-0.05002763078835214
3.75,-0.05
3.7520000000000002,-0.05002763078835216
3.754,-0.05011047391529929
3.7560000000000002,-0.050248381738058505
3.758,-0.050441108423706096
3.7600000000000002,-0.05068831030639281
3.762,-0.05098954638673253
3.7640000000000002,-0.05134427897265361
3.766,-0.051751874460797806
3.7680000000000002,-0.0522116042573576
3.77,-0.05272264583703528
3.7720000000000002,-0.05328408393861943
3.774,-0.05389491189547285
3.7760000000000002,-0.05455403309903922
3.778,-0.05526026259327864
3.7800000000000002,-0.05601232879776811
3.782,-0.05680887535700345
3.7840000000000003,-0.05764846311327574
3.786,-0.058529572200306496
3.7880000000000003,-0.05945060425466234
3.79,-0.06040988474179238
3.7920000000000003,-0.06140566539338486
3.794,-0.06243612675255759
3.7960000000000003,-0.0634993808232657
3.798,-0.06459347382014757
3.8000000000000003,-0.06571638901489192
3.802,-0.06686604967506488
3.8040000000000003,-0.06804032209122161
3.806,-0.06923701868797301
3.8080000000000003,-0.07045390121458724
3.81,-0.07168868401057155
3.8120000000000003,-0.07293903734158584
3.814,-0.07420259080092424
3.8160000000000003,-0.07547693677173128
3.818,-0.07675963394500102
3.8200000000000003,-0.07804821088835959
3.822,-0.07934016966053431
3.8240000000000003,-0.0806329894663628
3.826,-0.08192413034712233
3.8280000000000003,-0.08321103690093447
3.83,-0.08449114202792102
3.8320000000000003,-0.08576187069478612
3.834,-0.08702064371345117
3.8360000000000003,-0.08826488152835399
3.838,-0.0894920080070062
3.84,-0.09069945422841685
3.842,-0.09188466226395857
3.844,-0.09304508894530142
3.846,-0.09417820961402905
3.848,-0.09528152184758433
3.85,-0.09635254915624186
3.852,-0.09738884464581374
3.854,-0.09838799464087386
3.856,-0.09934762226332598
3.858,-0.1002653909612039
3.86,-0.10113900798266448
3.862,-0.10196622779021995
3.864,-0.10274485541032392
3.866,-0.10347274971353193
3.868,-0.10414782662054767
3.87,-0.10476806222957565
3.872,-0.10533149586050297
3.874,-0.10583623301156872
3.876,-0.10628044822428043
3.878,-0.10666238785248974
3.88,-0.10698037273165821
3.882,-0.10723280074449429
3.884,-0.10741814927928424
3.886,-0.10753497757740255
3.888,-0.10758192896662705
3.89,-0.10755773297706234
3.892,-0.10746120733663325
3.894,-0.10729125984328314
3.896,-0.10704689011118351
3.898,-0.10672719118844554
3.9,-0.1063313510440051
3.902,-0.10585865392153126
3.904,-0.1053084815584095
3.906,-0.10468031426803114
3.908,-0.10397373188382031
3.91,-0.10318841456362365
3.912,-0.10232414345328839
3.914,-0.10138080120845147
3.916,-0.10035837237376691
3.918,-0.09925694361899423
3.92,-0.09807670383158529
3.922,-0.09681794406559818
3.924,-0.09548105734698131
3.926,-0.0940665383354635
3.928,-0.09257498284350313
3.93,-0.09100708721293868
3.932,-0.08936364755019759
3.934,-0.08764555882110356
3.936,-0.08585381380655091
3.938,-0.08398950192047366
3.94,-0.08205380789176908
3.942,-0.08004801031200223
3.944,-0.07797348005092825
3.946,-0.07583167854203346
3.948,-0.07362415594051175
3.95,-0.07135254915624187
3.952,-0.06901857976453454
3.954,-0.06662405179757003
3.956,-0.06417084941964164
3.958,-0.061660934489453964
3.96,-0.05909634401291982
3.962,-0.056479187490020094
3.964,-0.053811644159473385
3.966,-0.05109596014508119
3.968,-0.04833444550777912
3.97,-0.04552947120752243
3.972,-0.04268346597931565
3.974,-0.03979891312775486
3.976,-0.03687834724462272
3.978,-0.03392435085414682
3.98,-0.03093955099066472
3.982,-0.027926615713497756
3.984,-0.02488825056397334
3.986,-0.021827194969568763
3.988,-0.018746218600262467
3.99,-0.01564811768221755
3.992,-0.012535711274015333
3.994,-0.009411837510667551
3.996,-0.006279349820730238
3.998,-0.0031411131218316824
4.0,-2.4492935982947064e-16
4.002,0.0031411131218311928
4.0040000000000004,0.006279349820730813
4.006,0.009411837510667419
4.008,0.012535711274014847
4.01,0.015648117682217064
4.0120000000000005,0.01874621860026303
4.014,0.021827194969569325
4.016,0.024888250563972862
4.018,0.027926615713497284
4.0200000000000005,0.030939550990664602
4.022,0.033924350854147356
4.024,0.03687834724462226
4.026,0.03979891312775441
4.0280000000000005,0.042683465979316174
4.03,0.045529471207522335
4.032,0.048334445507778684
4.034,0.05109596014508076
4.0360000000000005,0.05381164415947387
4.038,0.056479187490020566
4.04,0.05909634401291942
4.042,0.06166093448945356
4.0440000000000005,0.0641708494196416
4.046,0.06662405179757046
4.048,0.06901857976453418
4.05,0.07135254915624151
4.0520000000000005,0.07362415594051212
4.054,0.07583167854203313
4.056,0.07797348005092791
4.058,0.08004801031200193
4.0600000000000005,0.08205380789176907
4.062,0.08398950192047365
4.064,0.08585381380655063
4.066,0.08764555882110328
4.0680000000000005,0.08936364755019732
4.07,0.09100708721293893
4.072,0.09257498284350288
4.074,0.09406653833546326
4.0760000000000005,0.09548105734698151
4.078,0.09681794406559831
4.08,0.0980767038315851
4.082,0.09925694361899406
4.0840000000000005,0.10035837237376705
4.086,0.10138080120845158
4.088,0.10232414345328825
4.09,0.10318841456362352
4.0920000000000005,0.10397373188382047
4.094,0.10468031426803118
4.096,0.10530848155840943
4.098,0.1058586539215312
4.1,0.10633135104400473
4.102,0.10672719118844577
4.104,0.10704689011118347
4.106,0.10729125984328308
4.108,0.10746120733663328
4.11,0.10755773297706225
4.112,0.10758192896662705
4.114,0.10753497757740255
4.116,0.10741814927928442
4.118,0.10723280074449418
4.12,0.10698037273165825
4.122,0.1066623878524898
4.124,0.10628044822428025
4.126,0.1058362330115688
4.128,0.10533149586050308
4.13,0.10476806222957574
4.132,0.10414782662054808
4.134,0.10347274971353146
4.136,0.10274485541032405
4.138,0.10196622779022008
4.14,0.10113900798266501
4.142,0.10026539096120363
4.144,0.09934762226332614
4.146,0.09838799464087403
4.148,0.09738884464581368
4.15,0.09635254915624222
4.152,0.0952815218475845
4.154,0.09417820961402923
4.156,0.09304508894530228
4.158,0.09188466226395825
4.16,0.09069945422841703
4.162,0.08949200800700638
4.164,0.08826488152835418
4.166,0.08702064371345083
4.168,0.08576187069478579
4.17,0.08449114202792121
4.172,0.08321103690093468
4.174,0.0819241303471227
4.176,0.08063298946636245
4.178,0.07934016966053452
4.18,0.07804821088835978
4.182,0.07675963394500068
4.184,0.07547693677173162
4.186,0.07420259080092445
4.188,0.07293903734158602
4.19,0.07168868401057123
4.192,0.0704539012145868
4.194,0.0692370186879732
4.196,0.0680403220912218
4.198,0.06686604967506506
4.2,0.06571638901489152
4.202,0.06459347382014774
4.204,0.06349938082326587
4.206,0.06243612675255722
4.208,0.06140566539338511
4.21,0.06040988474179252
4.212,0.059450604254662476
4.214,0.05852957220030628
4.216,0.05764846311327553
4.218,0.056808875357003574
4.22,0.05601232879776822
4.222,0.055260262593278806
4.224,0.054554033099039057
4.226,0.053894911895472956
4.228,0.053284083938619525
4.23,0.052722645837035155
4.232,0.05221160425735771
4.234,0.05175187446079788
4.236,0.05134427897265367
4.238,0.05098954638673244
4.24,0.050688310306392745
4.242,0.050441108423706124
4.244,0.050248381738058526
4.246,0.05011047391529931
4.248,0.050027630788352144
4.25,0.05
4.252,0.05002763078835212
4.2540000000000004,0.05011047391529932
4.256,0.050248381738058484
4.258,0.05044110842370606
4.26,0.05068831030639265
4.2620000000000005,0.05098954638673262
4.264,0.051344278972653576
4.266,0.05175187446079775
4.268,0.052211604257357574
4.2700000000000005,0.05272264583703518
4.272,0.05328408393861935
4.274,0.05389491189547278
4.276,0.05455403309903919
4.2780000000000005,0.0552602625932789
4.28,0.056012328797768005
4.282,0.05680887535700334
4.284,0.05764846311327528
4.2860000000000005,0.05852957220030682
4.288,0.05945060425466221
4.29,0.06040988474179224
4.292,0.061405665393384816
4.2940000000000005,0.06243612675255734
4.296,0.06349938082326556
4.298,0.06459347382014742
4.3,0.06571638901489175
4.3020000000000005,0.06686604967506518
4.304,0.06804032209122145
4.306,0.06923701868797286
4.308,0.07045390121458643
4.3100000000000005,0.07168868401057188
4.312,0.07293903734158566
4.314,0.07420259080092406
4.316,0.07547693677173124
4.3180000000000005,0.07675963394500068
4.32,0.0780482108883594
4.322,0.07934016966053414
4.324,0.08063298946636276
4.3260000000000005,0.08192413034712269
4.328,0.08321103690093429
4.33,0.08449114202792082
4.332,0.08576187069478541
4.3340000000000005,0.08702064371345151
4.336,0.08826488152835381
4.338,0.089492008007006
4.34,0.09069945422841666
4.3420000000000005,0.0918846622639582
4.344,0.09304508894530192
4.346,0.09417820961402887
4.348,0.09528152184758482
4.3500000000000005,0.09635254915624235
4.352,0.09738884464581335
4.354,0.09838799464087368
4.356,0.09934762226332582
4.358,0.10026539096120395
4.36,0.10113900798266472
4.362,0.10196622779021977
4.364,0.10274485541032377
4.366,0.1034727497135312
4.368,0.10414782662054783
4.37,0.10476806222957552
4.372,0.10533149586050339
4.374,0.10583623301156861
4.376,0.10628044822428007
4.378,0.10666238785248963
4.38,0.1069803727316581
4.382,0.10723280074449446
4.384,0.10741814927928428
4.386,0.10753497757740282
4.388,0.10758192896662695
4.39,0.10755773297706217
4.392,0.10746120733663322
4.394,0.10729125984328305
4.396,0.10704689011118372
4.398,0.10672719118844576
4.4,0.10633135104400475
4.402,0.10585865392153124
4.404,0.10530848155840947
4.406,0.1046803142680314
4.408,0.10397373188382009
4.41,0.10318841456362374
4.412,0.10232414345328837
4.414,0.10138080120845175
4.416,0.10035837237376692
4.418,0.09925694361899426
4.42,0.09807670383158526
4.422,0.09681794406559854
4.424,0.09548105734698135
4.426,0.09406653833546354
4.428,0.09257498284350318
4.43,0.09100708721293906
4.432,0.08936364755019713
4.434,0.08764555882110339
4.436,0.085853813806551
4.438,0.08398950192047404
4.44,0.08205380789176854
4.442,0.08004801031200234
4.444,0.077973480050928
4.446,0.07583167854203357
4.448,0.07362415594051153
4.45,0.07135254915624199
4.452,0.06901857976453468
4.454,0.06662405179757053
4.456,0.06417084941964096
4.458,0.06166093448945362
4.46,0.05909634401291997
4.462,0.056479187490021135
4.464,0.05381164415947265
4.466,0.05109596014508136
4.468,0.04833444550777871
4.47,0.04552947120752295
4.472,0.04268346597931548
4.474,0.03979891312775505
4.476,0.03687834724462291
4.478,0.03392435085414736
4.48,0.030939550990663898
4.482,0.027926615713497284
4.484,0.024888250563973535
4.486,0.021827194969570005
4.488,0.018746218600261978
4.49,0.015648117682217754
4.492,0.012535711274014837
4.494,0.009411837510668113
4.496,0.006279349820729738
4.498,0.00314111312183189
4.5,4.531812137481795e-16
4.502,-0.0031411131218316945
4.5040000000000004,-0.006279349820730605
4.506,-0.009411837510667917
4.508,-0.01253571127401464
4.51,-0.01564811768221686
4.5120000000000005,-0.018746218600262828
4.514,-0.021827194969569124
4.516,-0.024888250563973344
4.518,-0.027926615713497083
4.5200000000000005,-0.03093955099066507
4.522,-0.03392435085414716
4.524,-0.03687834724462208
4.526,-0.039798913127754854
4.5280000000000005,-0.042683465979315986
4.53,-0.04552947120752275
4.532,-0.04833444550777852
4.534,-0.051095960145080596
4.5360000000000005,-0.05381164415947369
4.538,-0.0564791874900204
4.54,-0.059096344012919785
4.542,-0.06166093448945342
4.5440000000000005,-0.06417084941964193
4.546,-0.06662405179757033
4.548,-0.06901857976453404
4.55,-0.07135254915624178
4.5520000000000005,-0.073624155940512
4.554,-0.07583167854203339
4.556,-0.0779734800509278
4.558,-0.08004801031200182
4.5600000000000005,-0.08205380789176897
4.562,-0.08398950192047357
4.564,-0.0858538138065508
4.566,-0.0876455588211032
4.5680000000000005,-0.08936364755019746
4.57,-0.09100708721293888
4.572,-0.09257498284350282
4.574,-0.09406653833546334
4.5760000000000005,-0.09548105734698148
4.578,-0.09681794406559835
4.58,-0.09807670383158507
4.582,-0.09925694361899404
4.5840000000000005,-0.10035837237376702
4.586,-0.1013808012084516
4.588,-0.10232414345328819
4.59,-0.10318841456362354
4.5920000000000005,-0.10397373188382038
4.594,-0.10468031426803122
4.596,-0.10530848155840945
4.598,-0.10585865392153104
4.6000000000000005,-0.10633135104400514
4.602,-0.10672719118844558
4.604,-0.10704689011118353
4.606,-0.10729125984328317
4.6080000000000005,-0.10746120733663327
4.61,-0.10755773297706234
4.612,-0.10758192896662677
4.614,-0.10753497757740266
4.616,-0.10741814927928452
4.618,-0.10723280074449427
4.62,-0.10698037273165836
4.622,-0.10666238785248944
4.624,-0.10628044822428037
4.626,-0.10583623301156844
4.628,-0.10533149586050321
4.63,-0.10476806222957588
4.632,-0.10414782662054768
4.634,-0.1034727497135316
4.636,-0.10274485541032362
4.638,-0.10196622779022023
4.64,-0.10113900798266517
4.642,-0.10026539096120379
4.644,-0.09934762226332632
4.646,-0.09838799464087354
4.648,-0.09738884464581385
4.65,-0.09635254915624172
4.652,-0.09528152184758468
4.654,-0.09417820961402941
4.656,-0.09304508894530178
4.658,-0.09188466226395844
4.66,-0.09069945422841652
4.662,-0.08949200800700657
4.664,-0.08826488152835438
4.666,-0.08702064371345103
4.668,-0.08576187069478598
4.67,-0.0844911420279207
4.672,-0.08321103690093486
4.674,-0.08192413034712218
4.676,-0.08063298946636265
4.678,-0.07934016966053471
4.68,-0.07804821088835928
4.682,-0.07675963394500088
4.684,-0.07547693677173112
4.686,-0.07420259080092463
4.688,-0.07293903734158622
4.69,-0.07168868401057141
4.692,-0.07045390121458696
4.694,-0.06923701868797276
4.696,-0.06804032209122196
4.698,-0.06686604967506461
4.7,-0.06571638901489166
4.702,-0.0645934738201479
4.704,-0.06349938082326548
4.706,-0.062436126752557365
4.708,-0.061405665393384726
4.71,-0.06040988474179266
4.712,-0.05945060425466261
4.714,-0.0585295722003064
4.716,-0.05764846311327565
4.718,-0.05680887535700329
4.72,-0.056012328797768324
4.722,-0.05526026259327854
4.724,-0.054554033099039126
4.726,-0.05389491189547304
4.728,-0.0532840839386193
4.73,-0.052722645837035224
4.732,-0.05221160425735754
4.734,-0.05175187446079794
4.736,-0.05134427897265373
4.738,-0.05098954638673248
4.74,-0.05068831030639278
4.742,-0.05044110842370605
4.744,-0.050248381738058547
4.746,-0.050110473915299276
4.748,-0.05002763078835215
4.75,-0.05
4.752,-0.050027630788352144
4.7540000000000004,-0.0501104739152993
4.756,-0.05024838173805854
4.758,-0.050441108423706034
4.76,-0.05068831030639262
4.7620000000000005,-0.05098954638673258
4.764,-0.05134427897265353
4.766,-0.0517518744607979
4.768,-0.05221160425735751
4.7700000000000005,-0.05272264583703537
4.772,-0.053284083938619276
4.774,-0.0538949118954727
4.776,-0.05455403309903909
4.7780000000000005,-0.0552602625932788
4.78,-0.05601232879776828
4.782,-0.05680887535700323
4.784,-0.05764846311327518
4.7860000000000005,-0.05852957220030671
4.788,-0.05945060425466209
4.79,-0.0604098847417926
4.792,-0.06140566539338468
4.7940000000000005,-0.06243612675255773
4.796,-0.06349938082326541
4.798,-0.06459347382014727
4.8,-0.0657163890148916
4.8020000000000005,-0.06686604967506504
4.804,-0.06804032209122189
4.806,-0.06923701868797268
4.808,-0.07045390121458628
4.8100000000000005,-0.07168868401057171
4.812,-0.07293903734158548
4.814,-0.07420259080092455
4.816,-0.07547693677173106
4.8180000000000005,-0.07675963394500118
4.82,-0.07804821088835921
4.822,-0.07934016966053395
4.824,-0.08063298946636258
4.8260000000000005,-0.08192413034712251
4.828,-0.0832110369009348
4.83,-0.08449114202792064
4.832,-0.08576187069478522
4.8340000000000005,-0.0870206437134513
4.836,-0.08826488152835361
4.838,-0.08949200800700653
4.84,-0.09069945422841648
4.8420000000000005,-0.09188466226395871
4.844,-0.09304508894530174
4.846,-0.09417820961402869
4.848,-0.09528152184758464
4.8500000000000005,-0.09635254915624217
4.852,-0.09738884464581384
4.854,-0.09838799464087351
4.856,-0.09934762226332565
4.8580000000000005,-0.10026539096120418
4.86,-0.10113900798266455
4.862,-0.10196622779022023
4.864,-0.1027448554103236
4.866,-0.10347274971353106
4.868,-0.1041478266205477
4.87,-0.10476806222957538
4.872,-0.10533149586050322
4.874,-0.10583623301156847
4.876,-0.10628044822428043
4.878,-0.10666238785248949
4.88,-0.10698037273165799
4.882,-0.10723280074449434
4.884,-0.10741814927928417
4.886,-0.10753497757740274
4.888,-0.10758192896662686
4.89,-0.10755773297706243
4.892,-0.10746120733663315
4.894,-0.10729125984328299
4.896,-0.10704689011118365
4.898,-0.1067271911884457
4.9,-0.10633135104400492
4.902,-0.10585865392153118
4.904,-0.10530848155840944
4.906,-0.10468031426803137
4.908,-0.10397373188382007
4.91,-0.10318841456362371
4.912,-0.10232414345328837
4.914,-0.10138080120845178
4.916,-0.10035837237376692
4.918,-0.09925694361899427
4.92,-0.09807670383158529
4.922,-0.09681794406559857
4.924,-0.0954810573469813
4.926,-0.09406653833546358
4.928,-0.09257498284350323
4.93,-0.09100708721293913
4.932,-0.0893636475501972
4.934,-0.08764555882110348
4.936,-0.08585381380655108
4.938,-0.08398950192047384
4.94,-0.08205380789176864
4.942,-0.08004801031200244
4.944,-0.0779734800509281
4.946,-0.07583167854203371
4.948,-0.07362415594051125
4.95,-0.07135254915624212
4.952,-0.06901857976453481
4.954,-0.06662405179757067
4.956,-0.06417084941964112
4.958,-0.06166093448945377
4.96,-0.05909634401292013
4.962,-0.05647918749002076
4.964,-0.053811644159472816
4.966,-0.05109596014508153
4.968,-0.048334445507778885
4.97,-0.045529471207523126
4.972,-0.04268346597931505
4.974,-0.03979891312775523
4.976,-0.0368783472446231
4.978,-0.03392435085414756
4.98,-0.030939550990664092
4.982,-0.027926615713497478
4.984,-0.02488825056397374
4.986,-0.02182719496956952
4.988,-0.01874621860026218
4.99,-0.01564811768221796
4.992,-0.012535711274015041
4.994,-0.00941183751066832
4.996,-0.006279349820729945
4.998,-0.0031411131218320983
5.0,-6.614330676668885e-16
5.002,0.003141113121831487
5.0040000000000004,0.006279349820730398
5.006,0.00941183751066771
5.008,0.012535711274014436
5.01,0.015648117682217355
5.0120000000000005,0.018746218600262626
5.014,0.02182719496956892
5.016,0.024888250563973147
5.018,0.02792661571349689
5.0200000000000005,0.030939550990664873
5.022,0.033924350854146974
5.024,0.03687834724462252
5.026,0.039798913127754666
5.0280000000000005,0.04268346597931581
5.03,0.04552947120752257
5.032,0.04833444550777834
5.034,0.051095960145081
5.0360000000000005,0.05381164415947354
5.038,0.05647918749002025
5.04,0.05909634401291963
5.042,0.06166093448945327
5.0440000000000005,0.0641708494196418
5.046,0.0666240517975702
5.048,0.06901857976453435
5.05,0.07135254915624167
5.0520000000000005,0.07362415594051189
5.054,0.07583167854203327
5.056,0.07797348005092769
5.058,0.08004801031200204
5.0600000000000005,0.08205380789176889
5.062,0.08398950192047347
5.064,0.08585381380655072
5.066,0.08764555882110313
5.0680000000000005,0.0893636475501974
5.07,0.0910070872129388
5.072,0.09257498284350293
5.074,0.0940665383354633
5.0760000000000005,0.09548105734698144
5.078,0.09681794406559832
5.08,0.09807670383158504
5.082,0.09925694361899404
5.0840000000000005,0.10035837237376702
5.086,0.10138080120845158
5.088,0.10232414345328819
5.09,0.10318841456362354
5.0920000000000005,0.1039737318838204
5.094,0.10468031426803096
5.096,0.10530848155840902
5.098,0.1058586539215308
5.1000000000000005,0.10633135104400519
5.102,0.10672719118844563
5.104,0.1070468901111836
5.106,0.10729125984328322
5.1080000000000005,0.10746120733663306
5.11,0.10755773297706216
5.112,0.10758192896662687
5.114,0.10753497757740275
5.1160000000000005,0.10741814927928432
5.118,0.10723280074449439
5.12,0.10698037273165831
5.122,0.10666238785248983
5.124,0.10628044822428076
5.126,0.10583623301156855
5.128,0.10533149586050333
5.13,0.10476806222957548
5.132,0.10414782662054783
5.134,0.10347274971353142
5.136,0.10274485541032399
5.138,0.10196622779022062
5.14,0.1011390079826645
5.142,0.10026539096120395
5.144,0.09934762226332583
5.146,0.09838799464087371
5.148,0.09738884464581403
5.15,0.09635254915624211
5.152,0.09528152184758465
5.154,0.0941782096140287
5.156,0.09304508894530177
5.158,0.09188466226395792
5.16,0.09069945422841671
5.162,0.08949200800700677
5.164,0.08826488152835385
5.166,0.08702064371345103
5.168,0.08576187069478529
5.17,0.08449114202792071
5.172,0.08321103690093506
5.174,0.08192413034712237
5.176,0.08063298946636283
5.178,0.07934016966053437
5.18,0.07804821088835961
5.182,0.07675963394500021
5.184,0.07547693677173117
5.186,0.0742025908009248
5.188,0.07293903734158572
5.19,0.07168868401057156
5.192,0.07045390121458663
5.194,0.06923701868797304
5.196,0.06804032209122224
5.198,0.06686604967506478
5.2,0.06571638901489182
5.202,0.06459347382014749
5.204,0.06349938082326562
5.206,0.06243612675255708
5.208,0.06140566539338496
5.21,0.060409884741792874
5.212,0.059450604254662184
5.214,0.05852957220030652
5.216,0.057648463113275344
5.218,0.0568088753570034
5.22,0.056012328797768435
5.222,0.055260262593278694
5.224,0.05455403309903917
5.226,0.05389491189547276
5.228,0.053284083938619345
5.23,0.05272264583703504
5.232,0.05221160425735761
5.234,0.051751874460798
5.236,0.05134427897265359
5.238,0.05098954638673252
5.24,0.05068831030639264
5.242,0.05044110842370606
5.244,0.05024838173805857
5.246,0.05011047391529929
5.248,0.05002763078835216
5.25,0.05
5.252,0.05002763078835214
5.2540000000000004,0.05011047391529935
5.256,0.05024838173805851
5.258,0.050441108423706006
5.26,0.05068831030639271
5.2620000000000005,0.05098954638673253
5.264,0.05134427897265362
5.266,0.05175187446079782
5.268,0.05221160425735741
5.2700000000000005,0.05272264583703534
5.272,0.05328408393861921
5.274,0.05389491189547292
5.276,0.054554033099039
5.2780000000000005,0.05526026259327901
5.28,0.056012328797768116
5.282,0.05680887535700305
5.284,0.05764846311327555
5.2860000000000005,0.05852957220030659
5.288,0.05945060425466242
5.29,0.060409884741792465
5.292,0.06140566539338454
5.2940000000000005,0.06243612675255749
5.296,0.06349938082326517
5.298,0.06459347382014778
5.3,0.06571638901489155
5.3020000000000005,0.06686604967506546
5.304,0.06804032209122172
5.306,0.06923701868797251
5.308,0.07045390121458674
5.3100000000000005,0.07168868401057167
5.312,0.07293903734158609
5.314,0.0742025908009245
5.316,0.07547693677173087
5.3180000000000005,0.07675963394500102
5.32,0.07804821088835905
5.322,0.07934016966053446
5.324,0.08063298946636221
5.3260000000000005,0.08192413034712318
5.328,0.08321103690093479
5.33,0.08449114202792045
5.332,0.08576187069478575
5.3340000000000005,0.08702064371345113
5.336,0.08826488152835395
5.338,0.08949200800700616
5.34,0.0906994542284161
5.3420000000000005,0.09188466226395871
5.344,0.09304508894530154
5.346,0.0941782096140292
5.348,0.09528152184758445
5.3500000000000005,0.09635254915624245
5.352,0.09738884464581345
5.354,0.09838799464087312
5.356,0.09934762226332634
5.3580000000000005,0.10026539096120403
5.36,0.10113900798266501
5.362,0.10196622779022008
5.364,0.10274485541032345
5.3660000000000005,0.10347274971353158
5.368,0.1041478266205473
5.37,0.104768062229576
5.372,0.10533149586050333
5.3740000000000006,0.10583623301156911
5.376,0.10628044822428029
5.378,0.10666238785248938
5.38,0.10698037273165834
5.382,0.10723280074449398
5.384,0.10741814927928475
5.386,0.10753497757740291
5.388,0.10758192896662705
5.39,0.10755773297706234
5.392,0.10746120733663306
5.394,0.10729125984328321
5.396,0.1070468901111833
5.398,0.10672719118844537
5.4,0.10633135104400515
5.402,0.10585865392153115
5.404,0.10530848155840956
5.406,0.10468031426803134
5.408,0.10397373188382017
5.41,0.10318841456362338
5.412,0.10232414345328807
5.414,0.10138080120845148
5.416,0.10035837237376694
5.418,0.09925694361899427
5.42,0.0980767038315853
5.422,0.0968179440655986
5.424,0.09548105734698102
5.426,0.09406653833546332
5.428,0.09257498284350345
5.43,0.0910070872129395
5.432,0.08936364755019707
5.434,0.08764555882110353
5.436,0.08585381380655116
5.438,0.08398950192047394
5.44,0.0820538078917684
5.442,0.08004801031200255
5.444,0.07797348005092855
5.446,0.07583167854203415
5.448,0.07362415594051136
5.45,0.07135254915624224
5.452,0.0690185797645345
5.454,0.06662405179757046
5.456,0.06417084941964112
5.458,0.06166093448945426
5.46,0.05909634401292063
5.462,0.05647918749002092
5.464,0.05381164415947298
5.466,0.05109596014508114
5.468,0.04833444550777871
5.47,0.04552947120752296
5.472,0.04268346597931559
5.474,0.039798913127755416
5.476,0.03687834724462265
5.478,0.033924350854147745
5.48,0.030939550990663627
5.482,0.02792661571349732
5.484,0.024888250563973584
5.486,0.021827194969569363
5.488,0.018746218600262383
5.49,0.015648117682217466
5.492,0.01253571127401525
5.494,0.009411837510668528
5.496,0.006279349820729798
5.498,0.003141113121831951
5.5,5.144135537055472e-16
5.502,-0.003141113121830923
5.5040000000000004,-0.006279349820730899
5.506,-0.009411837510667504
5.508,-0.01253571127401423
5.51,-0.015648117682217147
5.5120000000000005,-0.018746218600262776
5.514,-0.02182719496956905
5.516,-0.02488825056397259
5.518,-0.02792661571349634
5.5200000000000005,-0.03093955099066468
5.522,-0.03392435085414679
5.524,-0.036878347244622335
5.526,-0.03979891312775448
5.5280000000000005,-0.04268346597931589
5.53,-0.04552947120752204
5.532,-0.04833444550777782
5.534,-0.051095960145080825
5.5360000000000005,-0.05381164415947337
5.538,-0.05647918749002062
5.54,-0.05909634401291981
5.542,-0.061660934489453464
5.5440000000000005,-0.06417084941964131
5.546,-0.0666240517975697
5.548,-0.06901857976453421
5.55,-0.07135254915624155
5.5520000000000005,-0.07362415594051215
5.554,-0.07583167854203349
5.556,-0.07797348005092791
5.558,-0.08004801031200226
5.5600000000000005,-0.08205380789176878
5.562,-0.08398950192047366
5.564,-0.08585381380655063
5.566,-0.08764555882110306
5.5680000000000005,-0.08936364755019766
5.57,-0.09100708721293907
5.572,-0.09257498284350318
5.574,-0.09406653833546294
5.5760000000000005,-0.09548105734698151
5.578,-0.0968179440655983
5.58,-0.09807670383158504
5.582,-0.09925694361899404
5.5840000000000005,-0.10035837237376731
5.586,-0.10138080120845125
5.588,-0.10232414345328789
5.59,-0.10318841456362327
5.5920000000000005,-0.10397373188382042
5.594,-0.10468031426803127
5.596,-0.10530848155840936
5.598,-0.10585865392153113
5.6000000000000005,-0.10633135104400473
5.602,-0.10672719118844542
5.604,-0.10704689011118337
5.606,-0.10729125984328301
5.6080000000000005,-0.10746120733663342
5.61,-0.10755773297706216
5.612,-0.10758192896662724
5.614,-0.10753497757740313
5.6160000000000005,-0.10741814927928416
5.618,-0.10723280074449423
5.62,-0.10698037273165815
5.622,-0.10666238785248969
5.6240000000000006,-0.10628044822428015
5.626,-0.10583623301156894
5.628,-0.10533149586050372
5.63,-0.10476806222957585
5.632,-0.10414782662054774
5.634,-0.10347274971353135
5.636,-0.10274485541032391
5.638,-0.10196622779021994
5.64,-0.1011390079826649
5.642,-0.10026539096120435
5.644,-0.09934762226332622
5.646,-0.09838799464087367
5.648,-0.09738884464581332
5.65,-0.09635254915624208
5.652,-0.09528152184758504
5.654,-0.09417820961402909
5.656,-0.09304508894530215
5.658,-0.0918846622639583
5.66,-0.0906994542284167
5.662,-0.08949200800700606
5.664,-0.08826488152835385
5.666,-0.0870206437134514
5.668,-0.08576187069478565
5.67,-0.08449114202792109
5.672,-0.0832110369009347
5.674,-0.0819241303471224
5.676,-0.08063298946636285
5.678,-0.0793401696605344
5.68,-0.07804821088835966
5.682,-0.07675963394500056
5.684,-0.07547693677173148
5.686,-0.07420259080092444
5.688,-0.07293903734158605
5.69,-0.07168868401057162
5.692,-0.07045390121458668
5.694,-0.06923701868797308
5.696,-0.06804032209122168
5.698,-0.06686604967506506
5.7,-0.06571638901489207
5.702,-0.06459347382014774
5.704,-0.06349938082326567
5.706,-0.06243612675255713
5.708,-0.06140566539338501
5.71,-0.06040988474179242
5.712,-0.0594506042546624
5.714,-0.05852957220030672
5.716,-0.057648463113275525
5.718,-0.05680887535700343
5.72,-0.05601232879776809
5.722,-0.05526026259327873
5.724,-0.05455403309903932
5.726,-0.0538949118954729
5.728,-0.05328408393861946
5.73,-0.05272264583703515
5.732,-0.05221160425735763
5.734,-0.05175187446079779
5.736,-0.05134427897265362
5.738,-0.05098954638673257
5.74,-0.05068831030639271
5.742,-0.0504411084237061
5.744,-0.05024838173805852
5.746,-0.05011047391529929
5.748,-0.05002763078835214
5.75,-0.05
5.752,-0.050027630788352144
5.7540000000000004,-0.050110473915299325
5.756,-0.05024838173805849
5.758,-0.05044110842370607
5.76,-0.05068831030639266
5.7620000000000005,-0.05098954638673252
5.764,-0.05134427897265361
5.766,-0.051751874460797785
5.768,-0.052211604257357616
5.7700000000000005,-0.052722645837035224
5.772,-0.05328408393861936
5.774,-0.05389491189547278
5.776,-0.054554033099038855
5.7780000000000005,-0.05526026259327896
5.78,-0.05601232879776808
5.782,-0.05680887535700343
5.784,-0.05764846311327537
5.7860000000000005,-0.0585295722003064
5.788,-0.059450604254662226
5.79,-0.06040988474179242
5.792,-0.061405665393384996
5.7940000000000005,-0.06243612675255745
5.796,-0.06349938082326564
5.798,-0.06459347382014752
5.8,-0.06571638901489128
5.8020000000000005,-0.06686604967506518
5.804,-0.06804032209122168
5.806,-0.06923701868797309
5.808,-0.07045390121458668
5.8100000000000005,-0.07168868401057137
5.812,-0.07293903734158579
5.814,-0.0742025908009242
5.816,-0.07547693677173123
5.8180000000000005,-0.07675963394500096
5.82,-0.0780482108883597
5.822,-0.07934016966053442
5.824,-0.0806329894663622
5.8260000000000005,-0.08192413034712283
5.828,-0.08321103690093443
5.83,-0.0844911420279208
5.832,-0.08576187069478539
5.8340000000000005,-0.08702064371345111
5.836,-0.08826488152835393
5.838,-0.08949200800700614
5.84,-0.09069945422841681
5.8420000000000005,-0.09188466226395832
5.844,-0.09304508894530186
5.846,-0.0941782096140288
5.848,-0.09528152184758408
5.8500000000000005,-0.09635254915624249
5.852,-0.09738884464581349
5.854,-0.09838799464087383
5.856,-0.09934762226332595
5.8580000000000005,-0.10026539096120426
5.86,-0.10113900798266462
5.862,-0.10196622779022015
5.864,-0.10274485541032413
5.8660000000000005,-0.10347274971353167
5.868,-0.10414782662054797
5.87,-0.10476806222957562
5.872,-0.10533149586050297
5.8740000000000006,-0.10583623301156872
5.876,-0.10628044822428043
5.878,-0.10666238785248999
5.88,-0.10698037273165847
5.882000000000001,-0.10723280074449446
5.884,-0.10741814927928438
5.886,-0.10753497757740255
5.888,-0.10758192896662705
5.89,-0.10755773297706198
5.892,-0.10746120733663357
5.894,-0.10729125984328342
5.896,-0.10704689011118354
5.898,-0.10672719118844584
5.9,-0.10633135104400482
5.902,-0.10585865392153102
5.904,-0.10530848155840924
5.906,-0.10468031426803101
5.908,-0.10397373188382043
5.91,-0.10318841456362367
5.912,-0.10232414345328841
5.914,-0.10138080120845179
5.916,-0.10035837237376664
5.918,-0.09925694361899398
5.92,-0.09807670383158502
5.922,-0.09681794406559888
5.924,-0.09548105734698137
5.926,-0.09406653833546355
5.928,-0.09257498284350318
5.93,-0.09100708721293924
5.932,-0.0893636475501968
5.934,-0.0876455588211033
5.936,-0.0858538138065513
5.938,-0.08398950192047436
5.94,-0.08205380789176853
5.942,-0.08004801031200232
5.944,-0.07797348005092831
5.946,-0.07583167854203356
5.948,-0.07362415594051183
5.95,-0.07135254915624228
5.952,-0.06901857976453497
5.954,-0.06662405179757094
5.956,-0.06417084941964092
5.958,-0.06166093448945407
5.96,-0.059096344012919924
5.962,-0.05647918749002073
5.964,-0.053811644159472934
5.966,-0.051095960145081644
5.968,-0.04833444550777923
5.97,-0.04552947120752289
5.972,-0.04268346597931541
5.974,-0.03979891312775462
5.976,-0.03687834724462248
5.978,-0.03392435085414758
5.98,-0.030939550990664172
5.982,-0.027926615713497874
5.984,-0.02488825056397346
5.986,-0.021827194969569925
5.988,-0.018746218600261537
5.99,-0.015648117682217317
5.992,-0.0125357112740151
5.994,-0.009411837510668384
5.996,-0.006279349820730361
5.998,-0.0031411131218318043
6.0,-3.6739403974420594e-16
6.002,0.0031411131218310705
6.0040000000000004,0.006279349820731046
6.006,0.009411837510667652
6.008,0.012535711274014372
6.01,0.01564811768221659
6.0120000000000005,0.01874621860026291
6.014,0.021827194969569204
6.016,0.024888250563972744
6.018,0.027926615713497166
6.0200000000000005,0.030939550990664835
6.022,0.03392435085414689
6.024,0.036878347244621794
6.026,0.039798913127753945
6.0280000000000005,0.042683465979316056
6.03,0.045529471207522224
6.032,0.04833444550777859
6.034,0.051095960145081006
6.0360000000000005,0.05381164415947342
6.038,0.05647918749002011
6.04,0.059096344012919313
6.042,0.06166093448945347
6.0440000000000005,0.0641708494196415
6.046,0.06662405179757036
6.048,0.06901857976453442
6.05,0.07135254915624176
6.0520000000000005,0.07362415594051169
6.054,0.07583167854203304
6.056,0.07797348005092783
6.058,0.08004801031200184
6.0600000000000005,0.08205380789176933
6.062,0.0839895019204739
6.064,0.08585381380655088
6.066,0.08764555882110288
6.0680000000000005,0.08936364755019727
6.07,0.09100708721293886
6.072,0.09257498284350282
6.074,0.09406653833546322
6.0760000000000005,0.09548105734698178
6.078,0.09681794406559857
6.08,0.09807670383158473
6.082,0.0992569436189937
6.0840000000000005,0.10035837237376699
6.086,0.10138080120845157
6.088,0.1023241434532882
6.09,0.10318841456362349
6.0920000000000005,0.10397373188382075
6.094,0.10468031426803087
6.096,0.1053084815584091
6.098,0.10585865392153088
6.1000000000000005,0.10633135104400507
6.102,0.10672719118844576
6.104,0.10704689011118346
6.106,0.10729125984328336
6.1080000000000005,0.10746120733663292
6.11,0.10755773297706198
6.112,0.10758192896662705
6.114,0.10753497757740257
6.1160000000000005,0.10741814927928453
6.118,0.10723280074449418
6.12,0.10698037273165853
6.122,0.10666238785249006
6.1240000000000006,0.10628044822428002
6.126,0.10583623301156883
6.128,0.10533149586050308
6.13,0.10476806222957577
6.132000000000001,0.10414782662054749
6.134,0.10347274971353172
6.136,0.1027448554103243
6.138,0.10196622779022033
6.140000000000001,0.10113900798266465
6.142,0.10026539096120365
6.144,0.09934762226332618
6.146,0.09838799464087405
6.148,0.09738884464581371
6.15,0.09635254915624247
6.152,0.09528152184758433
6.154,0.09417820961402906
6.156,0.09304508894530214
6.158,0.09188466226395829
6.16,0.09069945422841709
6.162,0.08949200800700643
6.164,0.08826488152835422
6.166,0.0870206437134507
6.168,0.08576187069478565
6.17,0.08449114202792112
6.172,0.08321103690093473
6.174,0.08192413034712274
6.176,0.0806329894663625
6.178,0.07934016966053473
6.18,0.07804821088835998
6.182,0.07675963394500059
6.184,0.07547693677173153
6.186,0.07420259080092449
6.188,0.07293903734158608
6.19,0.07168868401057127
6.192,0.07045390121458697
6.194,0.06923701868797338
6.196,0.06804032209122196
6.198,0.0668660496750651
6.2,0.06571638901489155
6.202,0.0645934738201478
6.204,0.06349938082326592
6.206,0.06243612675255737
6.208,0.061405665393385246
6.21,0.06040988474179266
6.212,0.059450604254662434
6.214,0.05852957220030631
6.216,0.05764846311327557
6.218,0.05680887535700361
6.22,0.05601232879776826
6.222,0.05526026259327889
6.224,0.054554033099039015
6.226,0.05389491189547293
6.228,0.0532840839386195
6.23,0.05272264583703518
6.232,0.05221160425735772
6.234,0.05175187446079789
6.236,0.051344278972653694
6.238,0.05098954638673244
6.24,0.05068831030639272
6.242,0.050441108423706124
6.244,0.050248381738058526
6.246,0.05011047391529932
6.248,0.05002763078835215
6.25,0.05
6.252,0.05002763078835212
6.2540000000000004,0.050110473915299325
6.256,0.05024838173805847
6.258,0.05044110842370606
6.26,0.05068831030639264
6.2620000000000005,0.05098954638673261
6.264,0.05134427897265351
6.266,0.0517518744607977
6.268,0.05221160425735751
6.2700000000000005,0.0527226458370352
6.272,0.05328408393861934
6.274,0.05389491189547275
6.276,0.05455403309903915
6.2780000000000005,0.055260262593278806
6.28,0.05601232879776791
6.282,0.05680887535700325
6.284,0.057648463113275324
6.2860000000000005,0.05852957220030679
6.288,0.05945060425466218
6.29,0.06040988474179221
6.292,0.061405665393384774
6.2940000000000005,0.06243612675255722
6.296,0.06349938082326541
6.298,0.06459347382014748
6.3,0.06571638901489182
6.3020000000000005,0.06686604967506515
6.304,0.0680403220912214
6.306,0.0692370186879728
6.308,0.0704539012145864
6.3100000000000005,0.07168868401057198
6.312,0.07293903734158574
6.314,0.07420259080092415
6.316,0.07547693677173119
6.3180000000000005,0.07675963394500063
6.32,0.07804821088835935
6.322,0.07934016966053409
6.324,0.08063298946636255
6.3260000000000005,0.0819241303471228
6.328,0.0832110369009344
6.33,0.08449114202792078
6.332,0.08576187069478536
6.3340000000000005,0.08702064371345146
6.336,0.08826488152835356
6.338,0.08949200800700578
6.34,0.09069945422841642
6.3420000000000005,0.09188466226395835
6.344,0.09304508894530189
6.346,0.09417820961402884
6.348,0.09528152184758479
6.3500000000000005,0.09635254915624211
6.352,0.09738884464581309
6.354,0.09838799464087344
6.356,0.099347622263326
6.3580000000000005,0.10026539096120432
6.36,0.10113900798266469
6.362,0.10196622779021976
6.364,0.10274485541032374
6.3660000000000005,0.10347274971353129
6.368,0.10414782662054758
6.37,0.10476806222957574
6.372,0.10533149586050361
6.3740000000000006,0.10583623301156886
6.376,0.10628044822428005
6.378,0.1066623878524896
6.38,0.10698037273165809
6.382000000000001,0.1072328007444941
6.384,0.10741814927928453
6.386,0.1075349775774031
6.388,0.10758192896662723
6.390000000000001,0.10755773297706198
6.392,0.10746120733663322
6.394,0.10729125984328307
6.396,0.10704689011118346
6.398000000000001,0.10672719118844573
6.4,0.10633135104400504
6.402,0.10585865392153125
6.404,0.1053084815584095
6.406,0.10468031426803143
6.408,0.10397373188382011
6.41,0.10318841456362345
6.412,0.10232414345328811
6.414,0.10138080120845148
6.416,0.10035837237376696
6.418,0.0992569436189943
6.42,0.09807670383158532
6.422,0.09681794406559859
6.424,0.09548105734698109
6.426,0.09406653833546327
6.428,0.09257498284350354
6.43,0.09100708721293943
6.432,0.0893636475501972
6.434,0.08764555882110348
6.436,0.08585381380655106
6.438,0.08398950192047411
6.44,0.08205380789176828
6.442,0.08004801031200276
6.444,0.07797348005092841
6.446,0.07583167854203399
6.448,0.07362415594051161
6.45,0.07135254915624209
6.452,0.06901857976453477
6.454,0.06662405179757028
6.456,0.06417084941964141
6.458,0.06166093448945406
6.46,0.05909634401292042
6.462,0.056479187490021246
6.464,0.05381164415947276
6.466,0.05109596014508147
6.468,0.04833444550777847
6.47,0.045529471207522716
6.472,0.04268346597931595
6.474,0.03979891312775516
6.476,0.03687834724462302
6.478,0.03392435085414748
6.48,0.030939550990664012
6.482,0.027926615713497048
6.484,0.024888250563973306
6.486,0.021827194969569773
6.488,0.0187462186002621
6.49,0.015648117682217876
6.492,0.012535711274014958
6.494,0.009411837510668236
6.496,0.006279349820729505
6.498,0.0031411131218316577
6.5,2.2037452578286474e-16
6.502,-0.003141113121831217
6.5040000000000004,-0.006279349820730484
6.506,-0.009411837510667796
6.508,-0.01253571127401452
6.51,-0.01564811768221674
6.5120000000000005,-0.018746218600263063
6.514,-0.02182719496956865
6.516,-0.024888250563972876
6.518,-0.02792661571349661
6.5200000000000005,-0.03093955099066495
6.522,-0.03392435085414705
6.524,-0.03687834724462195
6.526,-0.039798913127754736
6.5280000000000005,-0.04268346597931553
6.53,-0.04552947120752229
6.532,-0.04833444550777806
6.534,-0.051095960145080485
6.5360000000000005,-0.05381164415947359
6.538,-0.0564791874900203
6.54,-0.05909634401292003
6.542,-0.06166093448945366
6.5440000000000005,-0.06417084941964149
6.546,-0.06662405179756989
6.548,-0.06901857976453395
6.55,-0.07135254915624172
6.5520000000000005,-0.07362415594051192
6.554,-0.07583167854203363
6.556,-0.07797348005092805
6.558,-0.08004801031200207
6.5600000000000005,-0.0820538078917689
6.562,-0.0839895019204735
6.564,-0.08585381380655072
6.566,-0.08764555882110313
6.5680000000000005,-0.08936364755019771
6.57,-0.09100708721293913
6.572,-0.09257498284350309
6.574,-0.09406653833546297
6.5760000000000005,-0.09548105734698142
6.578,-0.0968179440655983
6.58,-0.09807670383158501
6.582,-0.09925694361899401
6.5840000000000005,-0.10035837237376728
6.586,-0.10138080120845125
6.588,-0.10232414345328784
6.59,-0.1031884145636232
6.5920000000000005,-0.10397373188382035
6.594,-0.10468031426803118
6.596,-0.10530848155840943
6.598,-0.10585865392153103
6.6000000000000005,-0.10633135104400482
6.602,-0.10672719118844529
6.604,-0.10704689011118323
6.606,-0.10729125984328317
6.6080000000000005,-0.10746120733663328
6.61,-0.10755773297706234
6.612,-0.10758192896662705
6.614,-0.10753497757740292
6.6160000000000005,-0.10741814927928396
6.618,-0.10723280074449403
6.62,-0.10698037273165839
6.622,-0.10666238785248947
6.6240000000000006,-0.10628044822428041
6.626,-0.10583623301156869
6.628,-0.10533149586050347
6.63,-0.10476806222957616
6.632000000000001,-0.10414782662054738
6.634,-0.10347274971353164
6.636,-0.10274485541032363
6.638,-0.10196622779022027
6.640000000000001,-0.10113900798266443
6.642,-0.10026539096120404
6.644,-0.09934762226332657
6.646,-0.09838799464087336
6.648000000000001,-0.09738884464581343
6.65,-0.09635254915624177
6.652,-0.09528152184758472
6.654,-0.09417820961402947
6.656000000000001,-0.09304508894530152
6.658,-0.09188466226395868
6.66,-0.09069945422841638
6.662,-0.08949200800700645
6.664,-0.08826488152835422
6.666,-0.08702064371345107
6.668,-0.08576187069478604
6.67,-0.08449114202792077
6.672,-0.08321103690093508
6.674,-0.08192413034712206
6.676,-0.08063298946636253
6.678,-0.07934016966053475
6.68,-0.07804821088835934
6.682,-0.07675963394500092
6.684,-0.07547693677173119
6.686,-0.07420259080092481
6.688,-0.07293903734158638
6.69,-0.07168868401057131
6.692,-0.07045390121458703
6.694,-0.0692370186879728
6.696,-0.06804032209122202
6.698,-0.06686604967506478
6.7,-0.06571638901489182
6.702,-0.06459347382014805
6.704,-0.06349938082326542
6.706,-0.06243612675255742
6.708,-0.06140566539338478
6.71,-0.060409884741792694
6.712,-0.059450604254662656
6.714,-0.058529572200306516
6.716,-0.05764846311327575
6.718,-0.05680887535700324
6.72,-0.056012328797768296
6.722,-0.05526026259327857
6.724,-0.05455403309903917
6.726,-0.053894911895473074
6.728,-0.05328408393861933
6.73,-0.052722645837035294
6.732,-0.05221160425735752
6.734,-0.0517518744607979
6.736,-0.05134427897265372
6.738,-0.050989546386732504
6.74,-0.05068831030639278
6.742,-0.050441108423706055
6.744,-0.05024838173805857
6.746,-0.05011047391529927
6.748,-0.05002763078835215
6.75,-0.05
6.752,-0.05002763078835216
6.7540000000000004,-0.0501104739152993
6.756,-0.05024838173805853
6.758,-0.050441108423706006
6.76,-0.050688310306392585
6.7620000000000005,-0.05098954638673259
6.764,-0.051344278972653506
6.766,-0.05175187446079788
6.768,-0.0522116042573575
6.7700000000000005,-0.05272264583703534
6.772,-0.053284083938619206
6.774,-0.05389491189547262
6.776,-0.054554033099039
6.7780000000000005,-0.055260262593278764
6.78,-0.056012328797768254
6.782,-0.056808875357003207
6.784,-0.057648463113275136
6.7860000000000005,-0.0585295722003066
6.788,-0.05945060425466196
6.79,-0.060409884741792645
6.792,-0.06140566539338472
6.7940000000000005,-0.06243612675255769
6.796,-0.06349938082326537
6.798,-0.06459347382014721
6.8,-0.06571638901489098
6.8020000000000005,-0.06686604967506488
6.804,-0.06804032209122136
6.806,-0.06923701868797338
6.808,-0.07045390121458697
6.8100000000000005,-0.07168868401057102
6.812,-0.07293903734158608
6.814,-0.0742025908009245
6.816,-0.07547693677173087
6.8180000000000005,-0.07675963394500128
6.82,-0.07804821088835932
6.822,-0.07934016966053406
6.824,-0.08063298946636183
6.8260000000000005,-0.08192413034712245
6.828,-0.08321103690093404
6.83,-0.08449114202792113
6.832,-0.0857618706947857
6.8340000000000005,-0.08702064371345074
6.836,-0.08826488152835427
6.838,-0.08949200800700648
6.84,-0.09069945422841644
6.8420000000000005,-0.09188466226395867
6.844,-0.09304508894530149
6.846,-0.09417820961402844
6.848,-0.09528152184758372
6.8500000000000005,-0.09635254915624213
6.852,-0.09738884464581313
6.854,-0.09838799464087415
6.856,-0.09934762226332626
6.8580000000000005,-0.10026539096120457
6.86,-0.10113900798266491
6.862,-0.10196622779022044
6.864,-0.10274485541032381
6.8660000000000005,-0.10347274971353194
6.868,-0.10414782662054767
6.87,-0.10476806222957535
6.872,-0.10533149586050267
6.8740000000000006,-0.10583623301156847
6.876,-0.10628044822428016
6.878,-0.10666238785249021
6.88,-0.10698037273165868
6.882000000000001,-0.10723280074449468
6.884,-0.10741814927928459
6.886,-0.10753497757740274
6.888,-0.10758192896662687
6.890000000000001,-0.1075577329770625
6.892,-0.10746120733663342
6.894,-0.10729125984328328
6.896,-0.10704689011118339
6.898000000000001,-0.1067271911884454
6.9,-0.10633135104400471
6.902,-0.10585865392153111
6.904,-0.10530848155840934
6.906000000000001,-0.10468031426803139
6.908,-0.1039737318838205
6.91,-0.10318841456362374
6.912,-0.10232414345328841
6.914,-0.10138080120845179
6.916,-0.10035837237376666
6.918,-0.09925694361899401
6.92,-0.09807670383158507
6.922,-0.09681794406559886
6.924,-0.09548105734698145
6.926,-0.09406653833546352
6.928,-0.09257498284350314
6.93,-0.09100708721293918
6.932,-0.08936364755019674
6.934,-0.08764555882110323
6.936,-0.08585381380655147
6.938,-0.08398950192047452
6.94,-0.0820538078917687
6.942,-0.08004801031200252
6.944,-0.07797348005092854
6.946,-0.0758316785420334
6.948,-0.07362415594051207
6.95,-0.07135254915624212
6.952,-0.06901857976453481
6.954,-0.06662405179757075
6.956,-0.06417084941964073
6.958,-0.06166093448945387
6.96,-0.05909634401292023
6.962,-0.05647918749002105
6.964,-0.05381164415947326
6.966,-0.051095960145081984
6.968,-0.04833444550777957
6.97,-0.04552947120752264
6.972,-0.04268346597931577
6.974,-0.03979891312775437
6.976,-0.036878347244622224
6.978,-0.033924350854147314
6.98,-0.0309395509906639
6.982,-0.027926615713497596
6.984,-0.024888250563973858
6.986,-0.021827194969570328
6.988,-0.018746218600261946
6.99,-0.015648117682217723
6.992,-0.012535711274015513
6.994,-0.009411837510668092
6.996,-0.006279349820730776
6.998,-0.003141113121831511
7.0,-7.335501182152353e-17
7.002,0.003141113121831364
7.0040000000000004,0.006279349820731339
7.006,0.009411837510667943
7.008,0.012535711274013959
7.01,0.015648117682216182
7.0120000000000005,0.018746218600262505
7.014,0.0218271949695688
7.016,0.02488825056397235
7.018,0.02792661571349744
7.0200000000000005,0.030939550990664453
7.022,0.03392435085414716
7.024,0.03687834724462206
7.026,0.0397989131277542
7.0280000000000005,0.04268346597931631
7.03,0.045529471207522466
7.032,0.04833444550777824
7.034,0.051095960145080666
7.0360000000000005,0.053811644159473086
7.038,0.0564791874900198
7.04,0.05909634401291901
7.042,0.06166093448945367
7.0440000000000005,0.06417084941964121
7.046,0.06662405179757055
7.048,0.0690185797645346
7.05,0.07135254915624192
7.0520000000000005,0.07362415594051186
7.054,0.07583167854203318
7.056,0.07797348005092761
7.058,0.08004801031200164
7.0600000000000005,0.08205380789176914
7.062,0.08398950192047372
7.064,0.08585381380655072
7.066,0.08764555882110295
7.0680000000000005,0.08936364755019713
7.07,0.09100708721293893
7.072,0.09257498284350286
7.074,0.09406653833546325
7.0760000000000005,0.09548105734698181
7.078,0.09681794406559857
7.08,0.09807670383158469
7.082,0.09925694361899368
7.0840000000000005,0.10035837237376698
7.086,0.10138080120845155
7.088,0.10232414345328822
7.09,0.10318841456362343
7.0920000000000005,0.10397373188382078
7.094,0.10468031426803077
7.096,0.10530848155840901
7.098,0.10585865392153078
7.1000000000000005,0.10633135104400494
7.102,0.10672719118844563
7.104,0.1070468901111836
7.106,0.1072912598432835
7.1080000000000005,0.10746120733663307
7.11,0.10755773297706214
7.112,0.10758192896662723
7.114,0.10753497757740237
7.1160000000000005,0.10741814927928472
7.118,0.10723280074449396
7.12,0.10698037273165831
7.122,0.10666238785248983
7.1240000000000006,0.10628044822427979
7.126,0.10583623301156858
7.128,0.10533149586050336
7.13,0.10476806222957605
7.132000000000001,0.10414782662054776
7.134,0.10347274971353203
7.136,0.1027448554103246
7.138,0.10196622779022005
7.140000000000001,0.10113900798266498
7.142,0.10026539096120335
7.144,0.09934762226332586
7.146,0.09838799464087375
7.148000000000001,0.09738884464581317
7.15,0.09635254915624217
7.152,0.0952815218475847
7.154,0.09417820961402945
7.156000000000001,0.09304508894530152
7.158,0.09188466226395867
7.16,0.09069945422841745
7.162,0.0894920080070061
7.164000000000001,0.08826488152835427
7.166,0.08702064371345036
7.168,0.08576187069478533
7.17,0.08449114202792078
7.172,0.0832110369009351
7.174,0.08192413034712243
7.176,0.08063298946636288
7.178,0.0793401696605351
7.18,0.07804821088836036
7.182,0.07675963394500095
7.184,0.0754769367717319
7.186,0.07420259080092419
7.188,0.07293903734158577
7.19,0.07168868401057099
7.192,0.07045390121458668
7.194,0.06923701868797309
7.196,0.0680403220912223
7.198,0.06686604967506482
7.2,0.06571638901489185
7.202,0.06459347382014809
7.204,0.0634993808232662
7.206,0.06243612675255764
7.208,0.06140566539338551
7.21,0.06040988474179244
7.212,0.05945060425466222
7.214,0.05852957220030611
7.216,0.05764846311327537
7.218,0.05680887535700342
7.22,0.056012328797768456
7.222,0.055260262593278736
7.224,0.05455403309903919
7.226,0.0538949118954731
7.228,0.05328408393861964
7.23,0.052722645837035315
7.232,0.05221160425735785
7.234,0.0517518744607978
7.236,0.0513442789726536
7.238,0.05098954638673236
7.24,0.05068831030639266
7.242,0.050441108423706055
7.244,0.050248381738058574
7.246,0.0501104739152993
7.248,0.05002763078835216
7.25,0.05
7.252,0.05002763078835211
7.2540000000000004,0.0501104739152993
7.256,0.05024838173805843
7.258,0.05044110842370611
7.26,0.0506883103063927
7.2620000000000005,0.05098954638673268
7.264,0.0513442789726536
7.266,0.0517518744607978
7.268,0.05221160425735738
7.2700000000000005,0.052722645837035315
7.272,0.05328408393861918
7.274,0.05389491189547259
7.276,0.05455403309903931
7.2780000000000005,0.05526026259327861
7.28,0.0560123287977677
7.282,0.05680887535700342
7.284,0.057648463113275525
7.2860000000000005,0.058529572200307
7.288,0.059450604254662386
7.29,0.06040988474179244
7.292,0.0614056653933845
7.2940000000000005,0.06243612675255745
7.296,0.06349938082326512
7.298,0.06459347382014717
7.3,0.06571638901489207
7.3020000000000005,0.06686604967506482
7.304,0.06804032209122109
7.306,0.06923701868797309
7.308,0.07045390121458668
7.3100000000000005,0.07168868401057227
7.312,0.07293903734158605
7.314,0.07420259080092446
7.316,0.07547693677173084
7.3180000000000005,0.07675963394500095
7.32,0.07804821088835898
7.322,0.07934016966053371
7.324,0.08063298946636288
7.3260000000000005,0.08192413034712243
7.328,0.08321103690093402
7.33,0.08449114202792112
7.332,0.08576187069478568
7.3340000000000005,0.08702064371345178
7.336,0.08826488152835389
7.338,0.0894920080070061
7.34,0.09069945422841605
7.3420000000000005,0.09188466226395867
7.344,0.09304508894530152
7.346,0.09417820961402845
7.348,0.09528152184758512
7.3500000000000005,0.09635254915624174
7.352,0.09738884464581275
7.354,0.09838799464087375
7.356,0.0993476222633263
7.3580000000000005,0.10026539096120463
7.36,0.10113900798266498
7.362,0.10196622779022005
7.364,0.10274485541032342
7.3660000000000005,0.10347274971353154
7.368,0.10414782662054729
7.37,0.10476806222957544
7.372,0.10533149586050386
7.3740000000000006,0.10583623301156858
7.376,0.10628044822427979
7.378,0.10666238785248983
7.38,0.10698037273165831
7.382000000000001,0.10723280074449432
7.384,0.10741814927928474
7.386,0.10753497757740291
7.388,0.10758192896662705
7.390000000000001,0.10755773297706214
7.392,0.10746120733663307
7.394,0.10729125984328292
7.396,0.1070468901111836
7.398000000000001,0.10672719118844563
7.4,0.10633135104400494
7.402,0.10585865392153135
7.404,0.1053084815584096
7.406000000000001,0.10468031426803107
7.408,0.10397373188382018
7.41,0.10318841456362343
7.412,0.1023241434532881
7.414000000000001,0.10138080120845155
7.416,0.10035837237376698
7.418,0.09925694361899431
7.42,0.09807670383158532
7.422000000000001,0.09681794406559793
7.424,0.09548105734698117
7.426,0.09406653833546325
7.428,0.0925749828435035
7.43,0.09100708721293957
7.432,0.08936364755019713
7.434,0.08764555882110361
7.436,0.08585381380655122
7.438,0.08398950192047427
7.44,0.08205380789176847
7.442,0.08004801031200295
7.444,0.07797348005092827
7.446,0.07583167854203385
7.448,0.07362415594051186
7.45,0.07135254915624192
7.452,0.0690185797645346
7.454,0.06662405179757055
7.456,0.06417084941964121
7.458,0.06166093448945435
7.46,0.059096344012920736
7.462,0.05647918749002155
7.464,0.053811644159473086
7.466,0.051095960145081804
7.468,0.04833444550777824
7.47,0.045529471207522466
7.472,0.04268346597931631
7.474,0.0397989131277549
7.476,0.03687834724462276
7.478,0.033924350854147856
7.48,0.03093955099066375
7.482,0.027926615713497437
7.484,0.024888250563973705
7.486,0.021827194969570175
7.488,0.018746218600262505
7.49,0.015648117682218285
7.492,0.012535711274014667
7.494,0.009411837510667943
7.496,0.006279349820729212
7.498,0.0031411131218313636
7.5,6.368782336202826e-16
7.502,-0.0031411131218308007
7.5040000000000004,-0.006279349820730777
7.506,-0.009411837510667383
7.508,-0.012535711274014108
7.51,-0.015648117682216328
7.5120000000000005,-0.018746218600262654
7.514,-0.021827194969568246
7.516,-0.02488825056397315
7.518,-0.02792661571349689
7.5200000000000005,-0.030939550990665223
7.522,-0.033924350854147314
7.524,-0.036878347244622224
7.526,-0.03979891312775437
7.5280000000000005,-0.04268346597931577
7.53,-0.04552947120752194
7.532,-0.04833444550777771
7.534,-0.05109596014508015
7.5360000000000005,-0.05381164415947326
7.538,-0.05647918749001998
7.54,-0.05909634401292023
7.542,-0.06166093448945387
7.5440000000000005,-0.06417084941964168
7.546,-0.06662405179757008
7.548,-0.06901857976453413
7.55,-0.07135254915624145
7.5520000000000005,-0.07362415594051207
7.554,-0.0758316785420334
7.556,-0.07797348005092783
7.558,-0.08004801031200187
7.5600000000000005,-0.08205380789176872
7.562,-0.0839895019204733
7.564,-0.08585381380655081
7.566,-0.08764555882110323
7.5680000000000005,-0.0893636475501978
7.57,-0.09100708721293918
7.572,-0.09257498284350314
7.574,-0.09406653833546288
7.5760000000000005,-0.09548105734698145
7.578,-0.09681794406559824
7.58,-0.09807670383158498
7.582,-0.09925694361899398
7.5840000000000005,-0.10035837237376728
7.586,-0.10138080120845125
7.588,-0.1023241434532878
7.59,-0.10318841456362314
7.5920000000000005,-0.10397373188382028
7.594,-0.10468031426803111
7.596,-0.10530848155840934
7.598,-0.10585865392153111
7.6000000000000005,-0.10633135104400471
7.602,-0.1067271911884454
7.604,-0.10704689011118337
7.606,-0.1072912598432833
7.6080000000000005,-0.10746120733663342
7.61,-0.1075577329770625
7.612,-0.10758192896662687
7.614,-0.10753497757740274
7.6160000000000005,-0.10741814927928377
7.618,-0.10723280074449382
7.62,-0.10698037273165817
7.622,-0.10666238785248972
7.6240000000000006,-0.10628044822428016
7.626,-0.10583623301156897
7.628,-0.10533149586050373
7.63,-0.10476806222957644
7.632000000000001,-0.10414782662054767
7.634,-0.10347274971353194
7.636,-0.10274485541032335
7.638,-0.10196622779021998
7.640000000000001,-0.10113900798266412
7.642,-0.10026539096120375
7.644,-0.09934762226332626
7.646,-0.09838799464087371
7.648000000000001,-0.09738884464581313
7.65,-0.09635254915624213
7.652,-0.09528152184758508
7.654,-0.09417820961402981
7.656000000000001,-0.09304508894530189
7.658,-0.09188466226395905
7.66,-0.09069945422841606
7.662,-0.08949200800700612
7.664000000000001,-0.08826488152835285
7.666,-0.08702064371345074
7.668,-0.0857618706947857
7.67,-0.08449114202792114
7.672000000000001,-0.08321103690093404
7.674,-0.08192413034712244
7.676,-0.08063298946636291
7.678,-0.07934016966053513
7.68,-0.078048210888359
7.682,-0.07675963394500128
7.684,-0.07547693677173087
7.686,-0.0742025908009245
7.688,-0.07293903734158608
7.69,-0.07168868401057102
7.692,-0.07045390121458672
7.694,-0.06923701868797313
7.696,-0.06804032209122234
7.698,-0.0668660496750651
7.7,-0.06571638901489213
7.702,-0.06459347382014834
7.704,-0.06349938082326516
7.706,-0.06243612675255769
7.708,-0.06140566539338455
7.71,-0.060409884741792465
7.712,-0.059450604254662434
7.714,-0.058529572200306315
7.716,-0.05764846311327556
7.718,-0.05680887535700346
7.72,-0.05601232879776849
7.722,-0.055260262593278764
7.724,-0.054554033099039334
7.726,-0.05389491189547324
7.728,-0.053284083938619206
7.73,-0.052722645837035426
7.732,-0.0522116042573574
7.734,-0.05175187446079781
7.736,-0.051344278972653624
7.738,-0.05098954638673243
7.74,-0.05068831030639272
7.742,-0.05044110842370611
7.744,-0.05024838173805861
7.746,-0.0501104739152993
7.748,-0.05002763078835217
7.75,-0.05
7.752,-0.050027630788352165
7.7540000000000004,-0.05011047391529927
7.756,-0.05024838173805857
7.758,-0.050441108423706055
7.76,-0.05068831030639265
7.7620000000000005,-0.05098954638673266
7.764,-0.05134427897265359
7.766,-0.051751874460797764
7.768,-0.05221160425735737
7.7700000000000005,-0.05272264583703521
7.772,-0.053284083938619047
7.774,-0.05389491189547245
7.776,-0.05455403309903917
7.7780000000000005,-0.05526026259327857
7.78,-0.05601232879776842
7.782,-0.056808875357003394
7.784,-0.057648463113275324
7.7860000000000005,-0.0585295722003068
7.788,-0.05945060425466219
7.79,-0.06040988474179239
7.792,-0.061405665393384455
7.7940000000000005,-0.06243612675255742
7.796,-0.06349938082326506
7.798,-0.06459347382014692
7.8,-0.06571638901489182
7.8020000000000005,-0.06686604967506456
7.804,-0.06804032209122225
7.806,-0.06923701868797305
7.808,-0.07045390121458664
7.8100000000000005,-0.07168868401057196
7.812,-0.07293903734158573
7.814,-0.07420259080092415
7.816,-0.07547693677173051
7.8180000000000005,-0.07675963394500092
7.82,-0.07804821088835895
7.822,-0.07934016966053367
7.824,-0.08063298946636285
7.8260000000000005,-0.08192413034712206
7.828,-0.08321103690093508
7.83,-0.08449114202792077
7.832,-0.08576187069478532
7.8340000000000005,-0.08702064371345178
7.836,-0.08826488152835389
7.838,-0.0894920080070061
7.84,-0.09069945422841606
7.8420000000000005,-0.09188466226395829
7.844,-0.09304508894530113
7.846,-0.09417820961402808
7.848,-0.09528152184758472
7.8500000000000005,-0.09635254915624177
7.852,-0.0973888446458141
7.854,-0.09838799464087379
7.856,-0.09934762226332591
7.8580000000000005,-0.10026539096120424
7.86,-0.10113900798266458
7.862,-0.1019662277902201
7.864,-0.10274485541032351
7.8660000000000005,-0.10347274971353164
7.868,-0.10414782662054738
7.87,-0.10476806222957505
7.872,-0.10533149586050347
7.8740000000000006,-0.10583623301156819
7.876,-0.1062804482242809
7.878,-0.10666238785248996
7.88,-0.10698037273165845
7.882000000000001,-0.10723280074449446
7.884,-0.10741814927928436
7.886,-0.10753497757740253
7.888,-0.10758192896662669
7.890000000000001,-0.10755773297706234
7.892,-0.10746120733663328
7.894,-0.10729125984328314
7.896,-0.1070468901111838
7.898000000000001,-0.10672719118844529
7.9,-0.10633135104400504
7.902,-0.10585865392153103
7.904,-0.10530848155840926
7.906000000000001,-0.10468031426803133
7.908,-0.10397373188382046
7.91,-0.10318841456362371
7.912,-0.10232414345328839
7.914000000000001,-0.10138080120845125
7.916,-0.10035837237376667
7.918,-0.09925694361899404
7.92,-0.09807670383158501
7.922000000000001,-0.0968179440655983
7.924,-0.09548105734698133
7.926,-0.0940665383354636
7.928,-0.09257498284350324
7.930000000000001,-0.0910070872129383
7.932,-0.08936364755019688
7.934,-0.08764555882110336
7.936,-0.08585381380655163
7.938,-0.08398950192047414
7.94,-0.0820538078917689
7.942,-0.08004801031200273
7.944,-0.07797348005092805
7.946,-0.07583167854203363
7.948,-0.07362415594051151
7.95,-0.07135254915624238
7.952,-0.06901857976453507
7.954,-0.06662405179757103
7.956,-0.06417084941964102
7.958,-0.06166093448945416
7.96,-0.05909634401292054
7.962,-0.0564791874900203
7.964,-0.05381164415947359
7.966,-0.05109596014508232
7.968,-0.04833444550777875
7.97,-0.045529471207522994
7.972,-0.04268346597931491
7.974,-0.039798913127754736
7.976,-0.03687834724462259
7.978,-0.0339243508541477
7.98,-0.03093955099066429
7.982,-0.02792661571349799
7.984,-0.024888250563974257
7.986,-0.021827194969569357
7.988,-0.018746218600262356
7.99,-0.015648117682218136
7.992,-0.01253571127401452
7.994,-0.009411837510668505
7.996,-0.006279349820729774
7.998,-0.003141113121831927
8.0,-4.898587196589413e-16
8.002,0.0031411131218330784
8.004,0.006279349820728797
8.006,0.00941183751066753
8.008000000000001,0.01253571127401566
8.01,0.015648117682217168
8.012,0.0187462186002621
8.014,0.02182719496956769
8.016,0.024888250563973306
8.018,0.027926615713497756
8.02,0.030939550990663353
8.022,0.03392435085414677
8.024000000000001,0.03687834724462366
8.026,0.03979891312775383
8.028,0.04268346597931595
8.03,0.04552947120752141
8.032,0.048334445507777886
8.034,0.05109596014508147
8.036,0.05381164415947276
8.038,0.056479187490019477
8.040000000000001,0.05909634401292042
8.042,0.061660934489453374
8.044,0.06417084941964189
8.046,0.06662405179756867
8.048,0.06901857976453434
8.05,0.0713525491562425
8.052,0.0736241559405108
8.054,0.07583167854203296
8.056000000000001,0.07797348005092876
8.058,0.0800480103120021
8.06,0.08205380789176894
8.062,0.08398950192047289
8.064,0.08585381380655106
8.066,0.08764555882110348
8.068,0.08936364755019635
8.07,0.09100708721293879
8.072000000000001,0.09257498284350371
8.074,0.09406653833546316
8.076,0.09548105734698173
8.078,0.09681794406559789
8.08,0.09807670383158465
8.082,0.0992569436189943
8.084,0.10035837237376635
8.086,0.10138080120845155
8.088000000000001,0.10232414345328872
8.09,0.10318841456362345
8.092,0.10397373188382059
8.094,0.10468031426803112
8.096,0.10530848155840908
8.098,0.10585865392153106
8.1,0.10633135104400492
8.102,0.10672719118844573
8.104000000000001,0.10704689011118373
8.106,0.10729125984328307
8.108,0.10746120733663322
8.11,0.10755773297706231
8.112,0.10758192896662669
8.114,0.1075349775774031
8.116,0.10741814927928442
8.118,0.10723280074449419
8.120000000000001,0.10698037273165764
8.122,0.10666238785249008
8.124,0.10628044822428005
8.126,0.10583623301156836
8.128,0.10533149586050364
8.13,0.10476806222957574
8.132,0.10414782662054758
8.134,0.10347274971353117
8.136000000000001,0.10274485541032374
8.138,0.10196622779022037
8.14,0.10113900798266406
8.142,0.10026539096120451
8.144,0.09934762226332622
8.146,0.09838799464087321
8.148,0.09738884464581442
8.15,0.09635254915624251
8.152000000000001,0.0952815218475841
8.154,0.09417820961402842
8.156,0.09304508894530189
8.158,0.09188466226395867
8.16,0.09069945422841642
8.162,0.08949200800700685
8.164,0.08826488152835428
8.166,0.08702064371345075
8.168000000000001,0.08576187069478464
8.17,0.08449114202792116
8.172,0.0832110369009344
8.174,0.08192413034712247
8.176,0.08063298946636324
8.178,0.0793401696605344
8.18,0.07804821088835935
8.182,0.07675963394499995
8.184000000000001,0.07547693677173119
8.186,0.07420259080092453
8.188,0.07293903734158509
8.19,0.07168868401057235
8.192,0.07045390121458703
8.194,0.06923701868797218
8.196,0.06804032209122261
8.198,0.06686604967506515
8.2,0.06571638901489195
8.202,0.06459347382014727
8.204,0.06349938082326562
8.206,0.06243612675255774
8.208,0.061405665393384774
8.21,0.060409884741792694
8.212,0.05945060425466246
8.214,0.05852957220030634
8.216,0.0576484631132763
8.218,0.056808875357003644
8.22,0.05601232879776803
8.222,0.055260262593278806
8.224,0.054554033099039376
8.226,0.05389491189547275
8.228,0.05328408393861923
8.23,0.05272264583703493
8.232,0.052211604257357914
8.234,0.05175187446079792
8.236,0.051344278972653395
8.238,0.05098954638673277
8.24,0.05068831030639273
8.242,0.05044110842370596
8.244,0.050248381738058616
8.246,0.050110473915299325
8.248,0.050027630788352165
8.25,0.05
8.252,0.05002763078835215
8.254,0.05011047391529927
8.256,0.05024838173805854
8.258000000000001,0.05044110842370601
8.26,0.05068831030639262
8.262,0.0509895463867326
8.264,0.051344278972653194
8.266,0.05175187446079768
8.268,0.05221160425735772
8.27,0.052722645837035266
8.272,0.053284083938619026
8.274000000000001,0.05389491189547293
8.276,0.054554033099039126
8.278,0.055260262593279125
8.28,0.05601232879776762
8.282,0.0568088753570032
8.284,0.057648463113276004
8.286,0.05852957220030603
8.288,0.05945060425466214
8.290000000000001,0.060409884741792964
8.292,0.06140566539338423
8.294,0.062436126752557164
8.296,0.06349938082326503
8.298,0.064593473820148
8.3,0.06571638901489156
8.302,0.06686604967506474
8.304,0.06804032209122197
8.306000000000001,0.06923701868797251
8.308,0.07045390121458633
8.31,0.07168868401057192
8.312,0.07293903734158438
8.314,0.07420259080092412
8.316,0.07547693677173153
8.318,0.07675963394500088
8.32,0.0780482108883586
8.322000000000001,0.07934016966053442
8.324,0.0806329894663625
8.326,0.08192413034712345
8.328,0.08321103690093365
8.33,0.08449114202792074
8.332,0.08576187069478637
8.334,0.08702064371345036
8.336,0.08826488152835352
8.338000000000001,0.08949200800700714
8.34,0.09069945422841569
8.342,0.09188466226395829
8.344,0.09304508894530153
8.346,0.09417820961402947
8.348,0.09528152184758433
8.35,0.0963525491562418
8.352,0.09738884464581371
8.354000000000001,0.0983879946408747
8.356,0.09934762226332597
8.358,0.10026539096120429
8.36,0.10113900798266386
8.362,0.10196622779021972
8.364,0.10274485541032384
8.366,0.10347274971353172
8.368,0.10414782662054699
8.370000000000001,0.10476806222957577
8.372,0.10533149586050358
8.374,0.10583623301156933
8.376,0.10628044822428004
8.378,0.10666238785248959
8.38,0.10698037273165847
8.382,0.10723280074449376
8.384,0.10741814927928453
8.386000000000001,0.10753497757740296
8.388,0.10758192896662686
8.39,0.10755773297706198
8.392,0.10746120733663347
8.394,0.10729125984328336
8.396,0.10704689011118346
8.398,0.10672719118844551
8.4,0.10633135104400529
8.402000000000001,0.10585865392153107
8.404,0.10530848155840952
8.406,0.10468031426803101
8.408,0.10397373188382052
8.41,0.1031884145636234
8.412,0.1023241434532882
8.414,0.10138080120845157
8.416,0.10035837237376699
8.418000000000001,0.0992569436189937
8.42,0.09807670383158537
8.422,0.09681794406559788
8.424,0.09548105734698187
8.426,0.09406653833546333
8.428,0.09257498284350267
8.43,0.09100708721293968
8.432,0.08936364755019727
8.434000000000001,0.08764555882110264
8.436,0.08585381380655138
8.438,0.08398950192047325
8.44,0.08205380789176933
8.442,0.08004801031200251
8.444,0.07797348005092783
8.446,0.07583167854203408
8.448,0.0736241559405113
8.45,0.07135254915624369
8.452,0.06901857976453486
8.454,0.06662405179756922
8.456,0.06417084941964246
8.458,0.06166093448945466
8.46,0.059096344012919313
8.462,0.0564791874900208
8.464,0.05381164415947342
8.466,0.05109596014508284
8.468,0.04833444550777859
8.47,0.04552947120752163
8.472,0.04268346597931667
8.474,0.03979891312775527
8.476,0.036878347244621155
8.478,0.033924350854148244
8.48,0.03093955099066413
8.482,0.02792661571349854
8.484,0.0248882505639741
8.486,0.021827194969569204
8.488,0.01874621860026362
8.49,0.015648117682217296
8.492,0.01253571127401437
8.494,0.009411837510668358
8.496,0.006279349820729627
8.498,0.00314111312183391
8.5,3.4283920569759996e-16
8.502,-0.0031411131218325146
8.504,-0.006279349820728234
8.506,-0.009411837510666968
8.508000000000001,-0.012535711274015812
8.51,-0.015648117682217317
8.512,-0.018746218600262248
8.514,-0.021827194969567844
8.516,-0.02488825056397275
8.518,-0.027926615713498543
8.52,-0.030939550990662812
8.522,-0.03392435085414694
8.524000000000001,-0.03687834724462383
8.526,-0.03979891312775399
8.528,-0.04268346597931541
8.53,-0.045529471207521585
8.532,-0.048334445507777365
8.534,-0.05109596014508165
8.536,-0.05381164415947224
8.538,-0.05647918749002073
8.540000000000001,-0.05909634401292061
8.542,-0.06166093448945357
8.544,-0.06417084941964141
8.546,-0.0666240517975682
8.548,-0.06901857976453385
8.55,-0.0713525491562427
